EXPLAIN
TAG	MULTI_STEP_CHRONOPOT
TITLE	LABEL	Chronopotentiometry Scan	Test &Identifier
DATE	LABEL	4/27/2026	Date
TIME	LABEL	13:09:10	Time
PSTAT	PSTAT	REF600P-38064	Potentiostat
NOTES	NOTES	1	&Notes...
	
AREA	QUANT	1.00000E+000	Sample &Area (cm^2)
ELECTRODETYPE	SELECTOR	0	Electrode Type
STRIPPING	TOGGLE	F	Used for Stripping
ISTEP0	QUANT	0.00000E+000	Step &1 (A)
TSTEP0	QUANT	1.00000E-003	Time &1 (s)
ISTEP1	QUANT	-1.18000E-002	Step &2 (A)
TSTEP1	QUANT	1.00000E-003	Time &2 (s)
ISTEP2	QUANT	0.00000E+000	Step &3 (A)
TSTEP2	QUANT	2.00000E-005	Time &3 (s)
ISTEP3	QUANT	0.00000E+000	Step &4 (A)
TSTEP3	QUANT	2.00000E-005	Time &4 (s)
ISTEP4	QUANT	1.18000E-002	Step &5 (A)
TSTEP4	QUANT	1.00000E-003	Time &5 (s)
ISTEP5	QUANT	0.00000E+000	Step &6 (A)
TSTEP5	QUANT	1.00000E-003	Time &6 (s)
SAMPLETIME	QUANT	1.00002E-005	Sa&mple Period (s)
VLIMITLOWER	QUANT	-1.00000E+001	Lower Limit &V (V)
VLIMITUPPER	QUANT	1.00000E+001	Upper Limit &V (V)
CONDIT	TWOPARAM	T	1.00000E+001	0.00000E+000	Conditionin&g	Time(s)	E(V)
DELAY	TWOPARAM	T	2.00000E+001	1.00000E-003	Init. De&lay	Time(s)	Stab.(mV/s)
EQDELAY	QUANT	0.00000E+000	Equil. &Time (s)
OCVCURVE	TABLE	77
	Pt	T	Vf	Vm	Ach	Over	Temp
	#	s	V vs. Ref.	V	V	bits	deg C
	0	0.258333	-2.70385E-003	-2.70385E-003	4.75422E-004	...........	-327.56
	1	0.516667	-2.70408E-003	-2.71593E-003	3.59555E-004	...........	-327.56
	2	0.775	-2.70548E-003	-2.72635E-003	4.80555E-004	...........	-327.56
	3	1.03333	-2.70935E-003	-2.73576E-003	3.63822E-004	...........	-327.56
	4	1.29167	-2.71609E-003	-2.74356E-003	4.71489E-004	...........	-327.56
	5	1.55	-2.72463E-003	-2.74852E-003	3.57155E-004	...........	-327.56
	6	1.80833	-2.73341E-003	-2.75641E-003	4.77555E-004	...........	-327.56
	7	2.06667	-2.74144E-003	-2.76103E-003	3.50622E-004	...........	-327.56
	8	2.325	-2.74855E-003	-2.76702E-003	4.76822E-004	...........	-327.56
	9	2.58333	-2.75495E-003	-2.77284E-003	3.69355E-004	...........	-327.56
	10	2.84167	-2.76093E-003	-2.78008E-003	4.78755E-004	...........	-327.56
	11	3.1	-2.76681E-003	-2.78413E-003	3.69889E-004	...........	-327.56
	12	3.35833	-2.77269E-003	-2.78932E-003	4.76822E-004	...........	-327.56
	13	3.61667	-2.77840E-003	-2.79427E-003	3.64422E-004	...........	-327.56
	14	3.875	-2.78378E-003	-2.79834E-003	4.84755E-004	...........	-327.56
	15	4.13333	-2.78885E-003	-2.80477E-003	3.72822E-004	...........	-327.56
	16	4.39167	-2.79376E-003	-2.80815E-003	4.86089E-004	...........	-327.56
	17	4.65	-2.79860E-003	-2.81128E-003	3.65355E-004	...........	-327.56
	18	4.90833	-2.80318E-003	-2.81381E-003	4.82289E-004	...........	-327.56
	19	5.16667	-2.80725E-003	-2.81812E-003	3.65622E-004	...........	-327.56
	20	5.425	-2.81087E-003	-2.82218E-003	4.86355E-004	...........	-327.56
	21	5.68333	-2.81434E-003	-2.82500E-003	3.74422E-004	...........	-327.56
	22	5.94167	-2.81786E-003	-2.82882E-003	4.81889E-004	...........	-327.56
	23	6.2	-2.82141E-003	-2.83136E-003	3.70489E-004	...........	-327.56
	24	6.45833	-2.82490E-003	-2.83676E-003	4.88755E-004	...........	-327.56
	25	6.71667	-2.82835E-003	-2.83722E-003	3.74555E-004	...........	-327.56
	26	6.975	-2.83171E-003	-2.84008E-003	4.92355E-004	...........	-327.56
	27	7.23333	-2.83475E-003	-2.84112E-003	3.70022E-004	...........	-327.56
	28	7.49167	-2.83739E-003	-2.84734E-003	4.89555E-004	...........	-327.56
	29	7.75	-2.83990E-003	-2.84789E-003	3.68155E-004	...........	-327.56
	30	8.00833	-2.84258E-003	-2.85136E-003	4.84489E-004	...........	-327.56
	31	8.26667	-2.84545E-003	-2.85552E-003	3.68289E-004	...........	-327.56
	32	8.525	-2.84842E-003	-2.85768E-003	4.82155E-004	...........	-327.56
	33	8.78333	-2.85149E-003	-2.86096E-003	3.63755E-004	...........	-327.56
	34	9.04167	-2.85458E-003	-2.86307E-003	4.78089E-004	...........	-327.56
	35	9.3	-2.85758E-003	-2.86725E-003	3.64755E-004	...........	-327.56
	36	9.5583	-2.86052E-003	-2.86935E-003	4.87822E-004	...........	-327.56
	37	9.8167	-2.86346E-003	-2.87236E-003	3.58355E-004	...........	-327.56
	38	10.075	-2.86636E-003	-2.87347E-003	4.80689E-004	...........	-327.56
	39	10.3333	-2.86908E-003	-2.87635E-003	3.67355E-004	...........	-327.56
	40	10.5917	-2.87154E-003	-2.87807E-003	4.79489E-004	...........	-327.56
	41	10.85	-2.87376E-003	-2.87911E-003	3.65022E-004	...........	-327.56
	42	11.1083	-2.87580E-003	-2.88176E-003	4.82022E-004	...........	-327.56
	43	11.3667	-2.87770E-003	-2.88451E-003	3.61622E-004	...........	-327.56
	44	11.625	-2.87967E-003	-2.88749E-003	4.80355E-004	...........	-327.56
	45	11.8833	-2.88188E-003	-2.88892E-003	3.60222E-004	...........	-327.56
	46	12.1417	-2.88428E-003	-2.89130E-003	4.79622E-004	...........	-327.56
	47	12.4	-2.88665E-003	-2.89275E-003	3.58022E-004	...........	-327.56
	48	12.6583	-2.88885E-003	-2.89457E-003	4.79889E-004	...........	-327.56
	49	12.9167	-2.89091E-003	-2.89931E-003	3.66422E-004	...........	-327.56
	50	13.175	-2.89304E-003	-2.90087E-003	4.81422E-004	...........	-327.56
	51	13.4333	-2.89545E-003	-2.90306E-003	3.66089E-004	...........	-327.56
	52	13.6917	-2.89803E-003	-2.90496E-003	4.82089E-004	...........	-327.56
	53	13.95	-2.90051E-003	-2.90728E-003	3.57889E-004	...........	-327.56
	54	14.2083	-2.90275E-003	-2.90681E-003	4.83555E-004	...........	-327.56
	55	14.4667	-2.90467E-003	-2.90950E-003	3.68889E-004	...........	-327.56
	56	14.725	-2.90630E-003	-2.91247E-003	4.87089E-004	...........	-327.56
	57	14.9833	-2.90789E-003	-2.91306E-003	3.61289E-004	...........	-327.56
	58	15.2417	-2.90962E-003	-2.91441E-003	4.72155E-004	...........	-327.56
	59	15.5	-2.91137E-003	-2.91642E-003	3.66222E-004	...........	-327.56
	60	15.7583	-2.91308E-003	-2.92078E-003	4.73222E-004	...........	-327.56
	61	16.0167	-2.91494E-003	-2.92204E-003	3.63155E-004	...........	-327.56
	62	16.275	-2.91714E-003	-2.92487E-003	4.72489E-004	...........	-327.56
	63	16.5333	-2.91960E-003	-2.92697E-003	3.67822E-004	...........	-327.56
	64	16.7917	-2.92205E-003	-2.92764E-003	4.80022E-004	...........	-327.56
	65	17.05	-2.92428E-003	-2.92944E-003	3.63955E-004	...........	-327.56
	66	17.3083	-2.92619E-003	-2.93051E-003	4.80622E-004	...........	-327.56
	67	17.5667	-2.92784E-003	-2.93480E-003	3.55489E-004	...........	-327.56
	68	17.825	-2.92951E-003	-2.93526E-003	4.75955E-004	...........	-327.56
	69	18.0833	-2.93139E-003	-2.93697E-003	3.68289E-004	...........	-327.56
	70	18.3417	-2.93336E-003	-2.93875E-003	4.86622E-004	...........	-327.56
	71	18.6	-2.93525E-003	-2.94178E-003	3.57689E-004	...........	-327.56
	72	18.8583	-2.93708E-003	-2.94201E-003	4.79689E-004	...........	-327.56
	73	19.1167	-2.93892E-003	-2.94377E-003	3.60022E-004	...........	-327.56
	74	19.375	-2.94067E-003	-2.94616E-003	4.71155E-004	...........	-327.56
	75	19.6333	-2.94235E-003	-2.94870E-003	3.55889E-004	...........	-327.56
	76	19.8917	-2.94409E-003	-2.94841E-003	4.72289E-004	...........	-327.56
EOC	QUANT	-0.0029441	Open Circuit (V)
PSTATMODEL	IQUANT	7	Pstat Model
PSTATSECTION	LABEL	REF600P-38064	Pstat Section
PSTATSERIALNO	LABEL	38064	Pstat Serial Number
CTRLMODE	IQUANT	0	Control Mode
ELECTROMETER	IQUANT	0	RE=0 or CS=1
IESTAB	IQUANT	0	I/E Stability
CASPEED	IQUANT	3	Control Amp Speed
CONVENTION	IQUANT	1	Current Convention
ICHRANGE	IQUANT	2	Ich Range
ICHRANGEMODE	TOGGLE	T	Ich Auto Range
ICHOFFSETENABLE	TOGGLE	F	Ich Offset Enable
ICHOFFSET	QUANT	0	Ich Offset (V)
ICHFILTER	IQUANT	1	Ich Filter
VCHRANGE	IQUANT	2	Vch Range
VCHRANGEMODE	TOGGLE	T	Vch Auto Range
VCHOFFSETENABLE	TOGGLE	F	Vch Offset Enable
VCHOFFSET	QUANT	0	Vch Offset (V)
VCHFILTER	IQUANT	1	Vch Filter
ACHRANGE	IQUANT	2	Ach Range
ACHOFFSETENABLE	TOGGLE	F	Ach Offset Enable
ACHOFFSET	QUANT	0	Ach Offset (V)
ACHFILTER	IQUANT	1	Ach Filter
IERANGELOWERLIMIT	IQUANT	1	I/E Range Lower Limit
IERANGEMODE	TOGGLE	F	I/E AutoRange
IERANGE	IQUANT	10	I/E Range
POSFEEDENABLE	TOGGLE	F	Positive Feedback IR Comp
POSFEEDRESISTANCE	QUANT	0	Positive Feedback Resistance (ohm)
ACHSELECT	IQUANT	4	Ach Select
SENSECABLEID	IQUANT	7	Sense Cable ID
PWRCABLEID	IQUANT	7	Power Cable ID
DCCALDATE	LABEL	8/6/2024	DC Calibration Date
ACCALDATE	LABEL	8/6/2024	AC Calibration Date
THERMOSELECT	IQUANT	1	Thermo Select
FRAMEWORKVERSION	LABEL	7.10.3	Framework Version
INSTRUMENTVERSION	LABEL	4.91	Instrument Version
COMMVERSION	LABEL	5.10	Communications Version
CPUPLDVERSION	LABEL	6.00	CPU PLD Version
CTRLPLDVERSION	LABEL	3.21	CTRL PLD Version
PSTATPLDVERSION	LABEL	0.00	PSTAT PLD Version
Curve	TABLE	404
	Pt	T	Vf	Im	Vu	Sig	Ach	IERange	Over	Temp
	#	s	V vs. Ref.	A	V	V	V	#	bits	deg C
	0	1.E-005	-4.16742E-003	-1.21792E-005	0.00000E+000	0.00000E+000	1.59889E-004	10	...........	 0.11
	1	2.E-005	-4.16742E-003	-1.01791E-005	0.00000E+000	0.00000E+000	5.98886E-005	10	...........	 0.11
	2	3.E-005	-4.06742E-003	-8.17907E-006	0.00000E+000	0.00000E+000	1.59889E-004	10	...........	 0.11
	3	4.E-005	-4.16742E-003	-1.21792E-005	0.00000E+000	0.00000E+000	5.98886E-005	10	...........	 0.11
	4	5.E-005	-4.06742E-003	-6.17900E-006	0.00000E+000	0.00000E+000	-4.01114E-005	10	...........	 0.11
	5	6.E-005	-4.16742E-003	-6.17900E-006	0.00000E+000	0.00000E+000	5.98886E-005	10	...........	 0.11
	6	7.E-005	-4.16742E-003	-8.17907E-006	0.00000E+000	0.00000E+000	5.98886E-005	10	...........	 0.11
	7	8.E-005	-4.16742E-003	-4.17892E-006	0.00000E+000	0.00000E+000	5.98886E-005	10	...........	 0.11
	8	9.E-005	-4.06742E-003	-1.01791E-005	0.00000E+000	0.00000E+000	5.98886E-005	10	...........	 0.11
	9	0.0001	-4.06742E-003	-1.01791E-005	0.00000E+000	0.00000E+000	5.98886E-005	10	...........	 0.11
	10	0.00011	-3.96742E-003	1.82130E-006	0.00000E+000	0.00000E+000	5.98886E-005	10	...........	 0.11
	11	0.00012	-4.06742E-003	-8.17907E-006	0.00000E+000	0.00000E+000	5.98886E-005	10	...........	 0.11
	12	0.00013	-4.06742E-003	-1.01791E-005	0.00000E+000	0.00000E+000	-4.01114E-005	10	...........	 0.11
	13	0.00014	-4.16742E-003	-6.17900E-006	0.00000E+000	0.00000E+000	-4.01114E-005	10	...........	 0.11
	14	0.00015	-4.16742E-003	-1.01791E-005	0.00000E+000	0.00000E+000	-4.01114E-005	10	...........	 0.11
	15	0.00016	-4.16742E-003	-1.01791E-005	0.00000E+000	0.00000E+000	5.98886E-005	10	...........	 0.11
	16	0.00017	-4.06742E-003	-1.01791E-005	0.00000E+000	0.00000E+000	-4.01114E-005	10	...........	 0.11
	17	0.00018	-4.16742E-003	-8.17907E-006	0.00000E+000	0.00000E+000	1.59889E-004	10	...........	 0.11
	18	0.00019	-4.06742E-003	-1.01791E-005	0.00000E+000	0.00000E+000	-1.40111E-004	10	...........	 0.11
	19	0.0002	-4.16742E-003	-1.01791E-005	0.00000E+000	0.00000E+000	5.98886E-005	10	...........	 0.11
	20	0.00021	-4.06742E-003	-6.17900E-006	0.00000E+000	0.00000E+000	5.98886E-005	10	...........	 0.11
	21	0.00022	-4.06742E-003	-1.01791E-005	0.00000E+000	0.00000E+000	5.98886E-005	10	...........	 0.11
	22	0.00023	-4.06742E-003	-1.01791E-005	0.00000E+000	0.00000E+000	-4.01114E-005	10	...........	 0.11
	23	0.00024	-4.16742E-003	-8.17907E-006	0.00000E+000	0.00000E+000	5.98886E-005	10	...........	 0.11
	24	0.00025	-4.06742E-003	-8.17907E-006	0.00000E+000	0.00000E+000	5.98886E-005	10	...........	 0.11
	25	0.00026	-3.86742E-003	-6.17900E-006	0.00000E+000	0.00000E+000	5.98886E-005	10	...........	 0.11
	26	0.00027	-4.06742E-003	-6.17900E-006	0.00000E+000	0.00000E+000	5.98886E-005	10	...........	 0.11
	27	0.00028	-4.06742E-003	-1.01791E-005	0.00000E+000	0.00000E+000	-4.01114E-005	10	...........	 0.11
	28	0.00029	-4.16742E-003	-4.17892E-006	0.00000E+000	0.00000E+000	5.98886E-005	10	...........	 0.11
	29	0.0003	-4.06742E-003	-6.17900E-006	0.00000E+000	0.00000E+000	5.98886E-005	10	...........	 0.11
	30	0.00031	-3.36742E-003	-4.17892E-006	0.00000E+000	0.00000E+000	5.98886E-005	10	...........	 0.11
	31	0.00032	-4.06742E-003	-8.17907E-006	0.00000E+000	0.00000E+000	5.98886E-005	10	...........	 0.11
	32	0.00033	-4.06742E-003	-4.17892E-006	0.00000E+000	0.00000E+000	5.98886E-005	10	...........	 0.11
	33	0.00034	-4.06742E-003	-1.01791E-005	0.00000E+000	0.00000E+000	5.98886E-005	10	...........	 0.11
	34	0.00035	-3.66742E-003	-6.17900E-006	0.00000E+000	0.00000E+000	5.98886E-005	10	...........	 0.11
	35	0.00036	-3.36742E-003	-6.17900E-006	0.00000E+000	0.00000E+000	5.98886E-005	10	...........	 0.11
	36	0.00037	-3.76742E-003	-6.17900E-006	0.00000E+000	0.00000E+000	5.98886E-005	10	...........	 0.11
	37	0.00038	-4.06742E-003	-4.17892E-006	0.00000E+000	0.00000E+000	-4.01114E-005	10	...........	 0.11
	38	0.00039	-4.36742E-003	1.82130E-006	0.00000E+000	0.00000E+000	5.98886E-005	10	...........	 0.11
	39	0.0004	-3.76742E-003	-6.17900E-006	0.00000E+000	0.00000E+000	5.98886E-005	10	...........	 0.11
	40	0.00041	-4.16742E-003	-6.17900E-006	0.00000E+000	0.00000E+000	1.59889E-004	10	...........	 0.11
	41	0.00042	-4.06742E-003	-6.17900E-006	0.00000E+000	0.00000E+000	5.98886E-005	10	...........	 0.11
	42	0.00043	-3.76742E-003	-4.17892E-006	0.00000E+000	0.00000E+000	5.98886E-005	10	...........	 0.11
	43	0.00044	-4.06742E-003	-6.17900E-006	0.00000E+000	0.00000E+000	5.98886E-005	10	...........	 0.11
	44	0.00045	-4.06742E-003	-6.17900E-006	0.00000E+000	0.00000E+000	5.98886E-005	10	...........	 0.11
	45	0.00046	-4.06742E-003	-1.01791E-005	0.00000E+000	0.00000E+000	5.98886E-005	10	...........	 0.11
	46	0.00047	-4.06742E-003	-8.17907E-006	0.00000E+000	0.00000E+000	-4.01114E-005	10	...........	 0.11
	47	0.00048	-3.76742E-003	-1.01791E-005	0.00000E+000	0.00000E+000	5.98886E-005	10	...........	 0.11
	48	0.00049	-4.06742E-003	-4.17892E-006	0.00000E+000	0.00000E+000	5.98886E-005	10	...........	 0.11
	49	0.0005	-4.06742E-003	-1.01791E-005	0.00000E+000	0.00000E+000	5.98886E-005	10	...........	 0.11
	50	0.00051	-3.66742E-003	-1.01791E-005	0.00000E+000	0.00000E+000	-4.01114E-005	10	...........	 0.11
	51	0.00052	-3.76742E-003	-6.17900E-006	0.00000E+000	0.00000E+000	5.98886E-005	10	...........	 0.11
	52	0.00053	-3.66742E-003	-8.17907E-006	0.00000E+000	0.00000E+000	-4.01114E-005	10	...........	 0.11
	53	0.00054	-3.76742E-003	-1.01791E-005	0.00000E+000	0.00000E+000	5.98886E-005	10	...........	 0.11
	54	0.00055	-3.66742E-003	-2.17885E-006	0.00000E+000	0.00000E+000	-4.01114E-005	10	...........	 0.11
	55	0.00056	-4.06742E-003	-6.17900E-006	0.00000E+000	0.00000E+000	-4.01114E-005	10	...........	 0.11
	56	0.00057	-4.16742E-003	-6.17900E-006	0.00000E+000	0.00000E+000	5.98886E-005	10	...........	 0.11
	57	0.00058	-4.06742E-003	-1.01791E-005	0.00000E+000	0.00000E+000	-4.01114E-005	10	...........	 0.11
	58	0.00059	-3.76742E-003	-1.01791E-005	0.00000E+000	0.00000E+000	-4.01114E-005	10	...........	 0.11
	59	0.0006	-3.76742E-003	1.82130E-006	0.00000E+000	0.00000E+000	5.98886E-005	10	...........	 0.11
	60	0.00061	-3.76742E-003	-8.17907E-006	0.00000E+000	0.00000E+000	1.59889E-004	10	...........	 0.11
	61	0.00062	-4.06742E-003	-1.01791E-005	0.00000E+000	0.00000E+000	-1.40111E-004	10	...........	 0.11
	62	0.00063	-3.76742E-003	-6.17900E-006	0.00000E+000	0.00000E+000	5.98886E-005	10	...........	 0.11
	63	0.00064	-3.76742E-003	-6.17900E-006	0.00000E+000	0.00000E+000	5.98886E-005	10	...........	 0.11
	64	0.00065	-3.86742E-003	-4.17892E-006	0.00000E+000	0.00000E+000	5.98886E-005	10	...........	 0.11
	65	0.00066	-3.76742E-003	-6.17900E-006	0.00000E+000	0.00000E+000	5.98886E-005	10	...........	 0.11
	66	0.00067	-3.66742E-003	-1.01791E-005	0.00000E+000	0.00000E+000	5.98886E-005	10	...........	 0.11
	67	0.00068	-3.66742E-003	-1.01791E-005	0.00000E+000	0.00000E+000	5.98886E-005	10	...........	 0.11
	68	0.00069	-3.66742E-003	-6.17900E-006	0.00000E+000	0.00000E+000	1.59889E-004	10	...........	 0.11
	69	0.0007	-3.76742E-003	-1.01791E-005	0.00000E+000	0.00000E+000	5.98886E-005	10	...........	 0.11
	70	0.00071	-3.66742E-003	-1.01791E-005	0.00000E+000	0.00000E+000	5.98886E-005	10	...........	 0.11
	71	0.00072	-4.16742E-003	-8.17907E-006	0.00000E+000	0.00000E+000	1.59889E-004	10	...........	 0.11
	72	0.00073	-3.66742E-003	-6.17900E-006	0.00000E+000	0.00000E+000	5.98886E-005	10	...........	 0.11
	73	0.00074	-3.76742E-003	-1.01791E-005	0.00000E+000	0.00000E+000	5.98886E-005	10	...........	 0.11
	74	0.00075	-3.76742E-003	-8.17907E-006	0.00000E+000	0.00000E+000	1.59889E-004	10	...........	 0.11
	75	0.00076	-3.66742E-003	-8.17907E-006	0.00000E+000	0.00000E+000	1.59889E-004	10	...........	 0.11
	76	0.00077	-4.06742E-003	-8.17907E-006	0.00000E+000	0.00000E+000	5.98886E-005	10	...........	 0.11
	77	0.00078	-4.06742E-003	-1.01791E-005	0.00000E+000	0.00000E+000	5.98886E-005	10	...........	 0.11
	78	0.00079	-3.66742E-003	-6.17900E-006	0.00000E+000	0.00000E+000	1.59889E-004	10	...........	 0.11
	79	0.0008	-3.66742E-003	-6.17900E-006	0.00000E+000	0.00000E+000	5.98886E-005	10	...........	 0.11
	80	0.00081	-3.76742E-003	-1.01791E-005	0.00000E+000	0.00000E+000	5.98886E-005	10	...........	 0.11
	81	0.00082	-3.66742E-003	-1.01791E-005	0.00000E+000	0.00000E+000	5.98886E-005	10	...........	 0.11
	82	0.00083	-3.66742E-003	-1.01791E-005	0.00000E+000	0.00000E+000	5.98886E-005	10	...........	 0.11
	83	0.00084	-3.86742E-003	-6.17900E-006	0.00000E+000	0.00000E+000	1.59889E-004	10	...........	 0.11
	84	0.00085	-3.76742E-003	-1.01791E-005	0.00000E+000	0.00000E+000	5.98886E-005	10	...........	 0.11
	85	0.00086	-3.76742E-003	-1.01791E-005	0.00000E+000	0.00000E+000	5.98886E-005	10	...........	 0.11
	86	0.00087	-4.06742E-003	-8.17907E-006	0.00000E+000	0.00000E+000	5.98886E-005	10	...........	 0.11
	87	0.00088	-3.76742E-003	-6.17900E-006	0.00000E+000	0.00000E+000	5.98886E-005	10	...........	 0.11
	88	0.00089	-3.66742E-003	-6.17900E-006	0.00000E+000	0.00000E+000	5.98886E-005	10	...........	 0.11
	89	0.0009	-3.66742E-003	-8.17907E-006	0.00000E+000	0.00000E+000	-4.01114E-005	10	...........	 0.11
	90	0.00091	-3.76742E-003	-1.01791E-005	0.00000E+000	0.00000E+000	5.98886E-005	10	...........	 0.11
	91	0.00092	-4.06742E-003	-1.01791E-005	0.00000E+000	0.00000E+000	5.98886E-005	10	...........	 0.11
	92	0.00093	-4.06742E-003	-1.01791E-005	0.00000E+000	0.00000E+000	5.98886E-005	10	...........	 0.11
	93	0.00094	-4.06742E-003	-1.21792E-005	0.00000E+000	0.00000E+000	5.98886E-005	10	...........	 0.11
	94	0.00095	-3.76742E-003	-6.17900E-006	0.00000E+000	0.00000E+000	5.98886E-005	10	...........	 0.11
	95	0.00096	-4.06742E-003	-4.17892E-006	0.00000E+000	0.00000E+000	-4.01114E-005	10	...........	 0.11
	96	0.00097	-4.16742E-003	-6.17900E-006	0.00000E+000	0.00000E+000	5.98886E-005	10	...........	 0.11
	97	0.00098	-4.06742E-003	-6.17900E-006	0.00000E+000	0.00000E+000	-4.01114E-005	10	...........	 0.11
	98	0.00099	-4.16742E-003	-4.17892E-006	0.00000E+000	0.00000E+000	-4.01114E-005	10	...........	 0.11
	99	0.001	-4.16742E-003	-6.17900E-006	0.00000E+000	0.00000E+000	5.98886E-005	10	...........	 0.11
	100	0.00101	-5.86067E-001	-5.95040E-003	0.00000E+000	-5.90000E-001	5.98886E-005	10	...........	 0.11
	101	0.00102	-9.33467E-001	-9.43453E-003	0.00000E+000	-5.90000E-001	-4.01114E-005	10	...........	 0.11
	102	0.00103	-1.06817E+000	-1.07746E-002	0.00000E+000	-5.90000E-001	5.98886E-005	10	...........	 0.11
	103	0.00104	-1.12327E+000	-1.12946E-002	0.00000E+000	-5.90000E-001	5.98886E-005	10	...........	 0.11
	104	0.00105	-1.14697E+000	-1.15126E-002	0.00000E+000	-5.90000E-001	5.98886E-005	10	...........	 0.11
	105	0.00106	-1.15847E+000	-1.16186E-002	0.00000E+000	-5.90000E-001	-1.40111E-004	10	...........	 0.11
	106	0.00107	-1.16447E+000	-1.16586E-002	0.00000E+000	-5.90000E-001	-4.01114E-005	10	...........	 0.11
	107	0.00108	-1.16857E+000	-1.16926E-002	0.00000E+000	-5.90000E-001	1.59889E-004	10	...........	 0.11
	108	0.00109	-1.17127E+000	-1.17026E-002	0.00000E+000	-5.90000E-001	5.98886E-005	10	...........	 0.11
	109	0.0011	-1.17297E+000	-1.17146E-002	0.00000E+000	-5.90000E-001	5.98886E-005	10	...........	 0.11
	110	0.00111	-1.17487E+000	-1.17246E-002	0.00000E+000	-5.90000E-001	5.98886E-005	10	...........	 0.11
	111	0.00112	-1.17617E+000	-1.17306E-002	0.00000E+000	-5.90000E-001	5.98886E-005	10	...........	 0.11
	112	0.00113	-1.18067E+000	-1.17746E-002	0.00000E+000	-5.90000E-001	5.98886E-005	10	...........	 0.11
	113	0.00114	-1.18007E+000	-1.17606E-002	0.00000E+000	-5.90000E-001	-4.01114E-005	10	...........	 0.11
	114	0.00115	-1.17977E+000	-1.17546E-002	0.00000E+000	-5.90000E-001	-4.01114E-005	10	...........	 0.11
	115	0.00116	-1.18057E+000	-1.17526E-002	0.00000E+000	-5.90000E-001	5.98886E-005	10	...........	 0.11
	116	0.00117	-1.18047E+000	-1.17546E-002	0.00000E+000	-5.90000E-001	5.98886E-005	10	...........	 0.11
	117	0.00118	-1.18097E+000	-1.17506E-002	0.00000E+000	-5.90000E-001	5.98886E-005	10	...........	 0.11
	118	0.00119	-1.18167E+000	-1.17566E-002	0.00000E+000	-5.90000E-001	-4.01114E-005	10	...........	 0.11
	119	0.0012	-1.18297E+000	-1.17586E-002	0.00000E+000	-5.90000E-001	5.98886E-005	10	...........	 0.11
	120	0.00121	-1.18327E+000	-1.17606E-002	0.00000E+000	-5.90000E-001	-4.01114E-005	10	...........	 0.11
	121	0.00122	-1.18407E+000	-1.17626E-002	0.00000E+000	-5.90000E-001	-4.01114E-005	10	...........	 0.11
	122	0.00123	-1.18457E+000	-1.17626E-002	0.00000E+000	-5.90000E-001	-4.01114E-005	10	...........	 0.11
	123	0.00124	-1.18497E+000	-1.17666E-002	0.00000E+000	-5.90000E-001	5.98886E-005	10	...........	 0.11
	124	0.00125	-1.18567E+000	-1.17686E-002	0.00000E+000	-5.90000E-001	5.98886E-005	10	...........	 0.11
	125	0.00126	-1.18607E+000	-1.17706E-002	0.00000E+000	-5.90000E-001	5.98886E-005	10	...........	 0.11
	126	0.00127	-1.18607E+000	-1.17666E-002	0.00000E+000	-5.90000E-001	5.98886E-005	10	...........	 0.11
	127	0.00128	-1.18687E+000	-1.17746E-002	0.00000E+000	-5.90000E-001	-4.01114E-005	10	...........	 0.11
	128	0.00129	-1.18757E+000	-1.17726E-002	0.00000E+000	-5.90000E-001	-4.01114E-005	10	...........	 0.11
	129	0.0013	-1.18737E+000	-1.17786E-002	0.00000E+000	-5.90000E-001	5.98886E-005	10	...........	 0.11
	130	0.00131	-1.18807E+000	-1.17706E-002	0.00000E+000	-5.90000E-001	5.98886E-005	10	...........	 0.11
	131	0.00132	-1.18847E+000	-1.17706E-002	0.00000E+000	-5.90000E-001	-4.01114E-005	10	...........	 0.11
	132	0.00133	-1.18857E+000	-1.17746E-002	0.00000E+000	-5.90000E-001	5.98886E-005	10	...........	 0.11
	133	0.00134	-1.18847E+000	-1.17786E-002	0.00000E+000	-5.90000E-001	-4.01114E-005	10	...........	 0.11
	134	0.00135	-1.18927E+000	-1.17706E-002	0.00000E+000	-5.90000E-001	-4.01114E-005	10	...........	 0.11
	135	0.00136	-1.18977E+000	-1.17786E-002	0.00000E+000	-5.90000E-001	5.98886E-005	10	...........	 0.11
	136	0.00137	-1.18977E+000	-1.17806E-002	0.00000E+000	-5.90000E-001	5.98886E-005	10	...........	 0.11
	137	0.00138	-1.18977E+000	-1.17826E-002	0.00000E+000	-5.90000E-001	5.98886E-005	10	...........	 0.11
	138	0.00139	-1.19007E+000	-1.17846E-002	0.00000E+000	-5.90000E-001	-4.01114E-005	10	...........	 0.11
	139	0.0014	-1.19057E+000	-1.17806E-002	0.00000E+000	-5.90000E-001	-4.01114E-005	10	...........	 0.11
	140	0.00141	-1.19077E+000	-1.17866E-002	0.00000E+000	-5.90000E-001	5.98886E-005	10	...........	 0.11
	141	0.00142	-1.19097E+000	-1.17826E-002	0.00000E+000	-5.90000E-001	5.98886E-005	10	...........	 0.11
	142	0.00143	-1.19127E+000	-1.17846E-002	0.00000E+000	-5.90000E-001	-4.01114E-005	10	...........	 0.11
	143	0.00144	-1.19147E+000	-1.17866E-002	0.00000E+000	-5.90000E-001	5.98886E-005	10	...........	 0.11
	144	0.00145	-1.19167E+000	-1.17826E-002	0.00000E+000	-5.90000E-001	-4.01114E-005	10	...........	 0.11
	145	0.00146	-1.19207E+000	-1.17866E-002	0.00000E+000	-5.90000E-001	-4.01114E-005	10	...........	 0.11
	146	0.00147	-1.19207E+000	-1.17866E-002	0.00000E+000	-5.90000E-001	-4.01114E-005	10	...........	 0.11
	147	0.00148	-1.19247E+000	-1.17866E-002	0.00000E+000	-5.90000E-001	-4.01114E-005	10	...........	 0.11
	148	0.00149	-1.19257E+000	-1.17866E-002	0.00000E+000	-5.90000E-001	5.98886E-005	10	...........	 0.11
	149	0.0015	-1.19267E+000	-1.17826E-002	0.00000E+000	-5.90000E-001	5.98886E-005	10	...........	 0.11
	150	0.00151	-1.19307E+000	-1.17886E-002	0.00000E+000	-5.90000E-001	5.98886E-005	10	...........	 0.11
	151	0.00152	-1.19327E+000	-1.17906E-002	0.00000E+000	-5.90000E-001	5.98886E-005	10	...........	 0.11
	152	0.00153	-1.19367E+000	-1.17826E-002	0.00000E+000	-5.90000E-001	5.98886E-005	10	...........	 0.11
	153	0.00154	-1.19367E+000	-1.17906E-002	0.00000E+000	-5.90000E-001	5.98886E-005	10	...........	 0.11
	154	0.00155	-1.19377E+000	-1.17946E-002	0.00000E+000	-5.90000E-001	5.98886E-005	10	...........	 0.11
	155	0.00156	-1.19367E+000	-1.17886E-002	0.00000E+000	-5.90000E-001	5.98886E-005	10	...........	 0.11
	156	0.00157	-1.19387E+000	-1.17866E-002	0.00000E+000	-5.90000E-001	5.98886E-005	10	...........	 0.11
	157	0.00158	-1.19407E+000	-1.17846E-002	0.00000E+000	-5.90000E-001	-4.01114E-005	10	...........	 0.11
	158	0.00159	-1.19457E+000	-1.17906E-002	0.00000E+000	-5.90000E-001	5.98886E-005	10	...........	 0.11
	159	0.0016	-1.19447E+000	-1.17926E-002	0.00000E+000	-5.90000E-001	-4.01114E-005	10	...........	 0.11
	160	0.00161	-1.19467E+000	-1.17906E-002	0.00000E+000	-5.90000E-001	5.98886E-005	10	...........	 0.11
	161	0.00162	-1.19487E+000	-1.17946E-002	0.00000E+000	-5.90000E-001	-4.01114E-005	10	...........	 0.11
	162	0.00163	-1.19497E+000	-1.17926E-002	0.00000E+000	-5.90000E-001	-4.01114E-005	10	...........	 0.11
	163	0.00164	-1.19517E+000	-1.17946E-002	0.00000E+000	-5.90000E-001	5.98886E-005	10	...........	 0.11
	164	0.00165	-1.19527E+000	-1.17926E-002	0.00000E+000	-5.90000E-001	5.98886E-005	10	...........	 0.11
	165	0.00166	-1.19527E+000	-1.17886E-002	0.00000E+000	-5.90000E-001	-4.01114E-005	10	...........	 0.11
	166	0.00167	-1.19577E+000	-1.17866E-002	0.00000E+000	-5.90000E-001	5.98886E-005	10	...........	 0.11
	167	0.00168	-1.19567E+000	-1.17946E-002	0.00000E+000	-5.90000E-001	-4.01114E-005	10	...........	 0.11
	168	0.00169	-1.19577E+000	-1.17946E-002	0.00000E+000	-5.90000E-001	5.98886E-005	10	...........	 0.11
	169	0.0017	-1.19607E+000	-1.17926E-002	0.00000E+000	-5.90000E-001	-4.01114E-005	10	...........	 0.11
	170	0.00171	-1.19617E+000	-1.17966E-002	0.00000E+000	-5.90000E-001	5.98886E-005	10	...........	 0.11
	171	0.00172	-1.19607E+000	-1.17926E-002	0.00000E+000	-5.90000E-001	-4.01114E-005	10	...........	 0.11
	172	0.00173	-1.19617E+000	-1.17946E-002	0.00000E+000	-5.90000E-001	5.98886E-005	10	...........	 0.11
	173	0.00174	-1.19617E+000	-1.17986E-002	0.00000E+000	-5.90000E-001	5.98886E-005	10	...........	 0.11
	174	0.00175	-1.19627E+000	-1.17886E-002	0.00000E+000	-5.90000E-001	5.98886E-005	10	...........	 0.11
	175	0.00176	-1.19647E+000	-1.17906E-002	0.00000E+000	-5.90000E-001	-4.01114E-005	10	...........	 0.11
	176	0.00177	-1.19657E+000	-1.18006E-002	0.00000E+000	-5.90000E-001	-4.01114E-005	10	...........	 0.11
	177	0.00178	-1.19697E+000	-1.17926E-002	0.00000E+000	-5.90000E-001	5.98886E-005	10	...........	 0.11
	178	0.00179	-1.19687E+000	-1.17926E-002	0.00000E+000	-5.90000E-001	-4.01114E-005	10	...........	 0.11
	179	0.0018	-1.19697E+000	-1.17946E-002	0.00000E+000	-5.90000E-001	5.98886E-005	10	...........	 0.11
	180	0.00181	-1.19677E+000	-1.17946E-002	0.00000E+000	-5.90000E-001	5.98886E-005	10	...........	 0.11
	181	0.00182	-1.19687E+000	-1.17946E-002	0.00000E+000	-5.90000E-001	5.98886E-005	10	...........	 0.11
	182	0.00183	-1.19687E+000	-1.17946E-002	0.00000E+000	-5.90000E-001	-4.01114E-005	10	...........	 0.11
	183	0.00184	-1.19737E+000	-1.18006E-002	0.00000E+000	-5.90000E-001	5.98886E-005	10	...........	 0.11
	184	0.00185	-1.19727E+000	-1.17926E-002	0.00000E+000	-5.90000E-001	-4.01114E-005	10	...........	 0.11
	185	0.00186	-1.19737E+000	-1.17946E-002	0.00000E+000	-5.90000E-001	5.98886E-005	10	...........	 0.11
	186	0.00187	-1.19727E+000	-1.17946E-002	0.00000E+000	-5.90000E-001	5.98886E-005	10	...........	 0.11
	187	0.00188	-1.19767E+000	-1.17946E-002	0.00000E+000	-5.90000E-001	5.98886E-005	10	...........	 0.11
	188	0.00189	-1.19767E+000	-1.17926E-002	0.00000E+000	-5.90000E-001	-4.01114E-005	10	...........	 0.11
	189	0.0019	-1.19777E+000	-1.17986E-002	0.00000E+000	-5.90000E-001	-4.01114E-005	10	...........	 0.11
	190	0.00191	-1.19777E+000	-1.17966E-002	0.00000E+000	-5.90000E-001	-4.01114E-005	10	...........	 0.11
	191	0.00192	-1.19777E+000	-1.17986E-002	0.00000E+000	-5.90000E-001	5.98886E-005	10	...........	 0.11
	192	0.00193	-1.19777E+000	-1.17966E-002	0.00000E+000	-5.90000E-001	-4.01114E-005	10	...........	 0.11
	193	0.00194	-1.19777E+000	-1.17966E-002	0.00000E+000	-5.90000E-001	-1.40111E-004	10	...........	 0.11
	194	0.00195	-1.19807E+000	-1.17986E-002	0.00000E+000	-5.90000E-001	-4.01114E-005	10	...........	 0.11
	195	0.00196	-1.19777E+000	-1.17926E-002	0.00000E+000	-5.90000E-001	5.98886E-005	10	...........	 0.11
	196	0.00197	-1.19817E+000	-1.17946E-002	0.00000E+000	-5.90000E-001	5.98886E-005	10	...........	 0.11
	197	0.00198	-1.19847E+000	-1.18026E-002	0.00000E+000	-5.90000E-001	5.98886E-005	10	...........	 0.11
	198	0.00199	-1.19807E+000	-1.17926E-002	0.00000E+000	-5.90000E-001	-4.01114E-005	10	...........	 0.11
	199	0.002	-1.19857E+000	-1.17966E-002	0.00000E+000	-5.90000E-001	1.59889E-004	10	...........	 0.11
	200	0.00201	-6.11767E-001	-5.81040E-003	0.00000E+000	0.00000E+000	5.98886E-005	10	...........	 0.11
	201	0.00202	-2.60867E-001	-2.27426E-003	0.00000E+000	0.00000E+000	5.98886E-005	10	...........	 0.11
	202	0.00203	-1.26167E-001	-9.46214E-004	0.00000E+000	0.00000E+000	5.98886E-005	10	...........	 0.11
	203	0.00204	-7.28674E-002	-4.28195E-004	0.00000E+000	0.00000E+000	-4.01114E-005	10	...........	 0.11
	204	0.00205	5.34633E-001	5.74804E-003	0.00000E+000	5.90000E-001	-4.01114E-005	10	...........	 0.11
	205	0.00206	8.95833E-001	9.35817E-003	0.00000E+000	5.90000E-001	5.98886E-005	10	...........	 0.11
	206	0.00207	1.03593E+000	1.07362E-002	0.00000E+000	5.90000E-001	-4.01114E-005	10	...........	 0.11
	207	0.00208	1.09303E+000	1.12742E-002	0.00000E+000	5.90000E-001	5.98886E-005	10	...........	 0.11
	208	0.00209	1.11833E+000	1.15003E-002	0.00000E+000	5.90000E-001	-4.01114E-005	10	...........	 0.11
	209	0.0021	1.13063E+000	1.15963E-002	0.00000E+000	5.90000E-001	5.98886E-005	10	...........	 0.11
	210	0.00211	1.13753E+000	1.16443E-002	0.00000E+000	5.90000E-001	-4.01114E-005	10	...........	 0.11
	211	0.00212	1.14203E+000	1.16743E-002	0.00000E+000	5.90000E-001	5.98886E-005	10	...........	 0.11
	212	0.00213	1.14513E+000	1.16823E-002	0.00000E+000	5.90000E-001	5.98886E-005	10	...........	 0.11
	213	0.00214	1.14783E+000	1.16923E-002	0.00000E+000	5.90000E-001	1.59889E-004	10	...........	 0.11
	214	0.00215	1.14993E+000	1.17023E-002	0.00000E+000	5.90000E-001	-4.01114E-005	10	...........	 0.11
	215	0.00216	1.15183E+000	1.17063E-002	0.00000E+000	5.90000E-001	5.98886E-005	10	...........	 0.11
	216	0.00217	1.15343E+000	1.17123E-002	0.00000E+000	5.90000E-001	5.98886E-005	10	...........	 0.11
	217	0.00218	1.15503E+000	1.17223E-002	0.00000E+000	5.90000E-001	5.98886E-005	10	...........	 0.11
	218	0.00219	1.15623E+000	1.17263E-002	0.00000E+000	5.90000E-001	5.98886E-005	10	...........	 0.11
	219	0.0022	1.15753E+000	1.17183E-002	0.00000E+000	5.90000E-001	5.98886E-005	10	...........	 0.11
	220	0.00221	1.15903E+000	1.17263E-002	0.00000E+000	5.90000E-001	5.98886E-005	10	...........	 0.11
	221	0.00222	1.15993E+000	1.17263E-002	0.00000E+000	5.90000E-001	5.98886E-005	10	...........	 0.11
	222	0.00223	1.16113E+000	1.17283E-002	0.00000E+000	5.90000E-001	5.98886E-005	10	...........	 0.11
	223	0.00224	1.16183E+000	1.17363E-002	0.00000E+000	5.90000E-001	5.98886E-005	10	...........	 0.11
	224	0.00225	1.16293E+000	1.17363E-002	0.00000E+000	5.90000E-001	1.59889E-004	10	...........	 0.11
	225	0.00226	1.16353E+000	1.17363E-002	0.00000E+000	5.90000E-001	5.98886E-005	10	...........	 0.11
	226	0.00227	1.16453E+000	1.17383E-002	0.00000E+000	5.90000E-001	5.98886E-005	10	...........	 0.11
	227	0.00228	1.16513E+000	1.17463E-002	0.00000E+000	5.90000E-001	5.98886E-005	10	...........	 0.11
	228	0.00229	1.16623E+000	1.17423E-002	0.00000E+000	5.90000E-001	5.98886E-005	10	...........	 0.11
	229	0.0023	1.16703E+000	1.17423E-002	0.00000E+000	5.90000E-001	5.98886E-005	10	...........	 0.11
	230	0.00231	1.16773E+000	1.17483E-002	0.00000E+000	5.90000E-001	-2.40111E-004	10	...........	 0.11
	231	0.00232	1.16823E+000	1.17443E-002	0.00000E+000	5.90000E-001	5.98886E-005	10	...........	 0.11
	232	0.00233	1.16833E+000	1.17483E-002	0.00000E+000	5.90000E-001	-4.01114E-005	10	...........	 0.11
	233	0.00234	1.16903E+000	1.17463E-002	0.00000E+000	5.90000E-001	5.98886E-005	10	...........	 0.11
	234	0.00235	1.16993E+000	1.17523E-002	0.00000E+000	5.90000E-001	-4.01114E-005	10	...........	 0.11
	235	0.00236	1.17023E+000	1.17543E-002	0.00000E+000	5.90000E-001	5.98886E-005	10	...........	 0.11
	236	0.00237	1.17063E+000	1.17523E-002	0.00000E+000	5.90000E-001	5.98886E-005	10	...........	 0.11
	237	0.00238	1.17073E+000	1.17503E-002	0.00000E+000	5.90000E-001	5.98886E-005	10	...........	 0.11
	238	0.00239	1.17193E+000	1.17543E-002	0.00000E+000	5.90000E-001	-4.01114E-005	10	...........	 0.11
	239	0.0024	1.17263E+000	1.17563E-002	0.00000E+000	5.90000E-001	-4.01114E-005	10	...........	 0.11
	240	0.00241	1.17263E+000	1.17563E-002	0.00000E+000	5.90000E-001	1.59889E-004	10	...........	 0.11
	241	0.00242	1.17343E+000	1.17543E-002	0.00000E+000	5.90000E-001	5.98886E-005	10	...........	 0.11
	242	0.00243	1.17343E+000	1.17623E-002	0.00000E+000	5.90000E-001	5.98886E-005	10	...........	 0.11
	243	0.00244	1.17423E+000	1.17563E-002	0.00000E+000	5.90000E-001	5.98886E-005	10	...........	 0.11
	244	0.00245	1.17463E+000	1.17623E-002	0.00000E+000	5.90000E-001	5.98886E-005	10	...........	 0.11
	245	0.00246	1.17503E+000	1.17603E-002	0.00000E+000	5.90000E-001	1.59889E-004	10	...........	 0.11
	246	0.00247	1.17503E+000	1.17603E-002	0.00000E+000	5.90000E-001	5.98886E-005	10	...........	 0.11
	247	0.00248	1.17523E+000	1.17623E-002	0.00000E+000	5.90000E-001	5.98886E-005	10	...........	 0.11
	248	0.00249	1.17583E+000	1.17663E-002	0.00000E+000	5.90000E-001	5.98886E-005	10	...........	 0.11
	249	0.0025	1.17623E+000	1.17623E-002	0.00000E+000	5.90000E-001	5.98886E-005	10	...........	 0.11
	250	0.00251	1.17633E+000	1.17663E-002	0.00000E+000	5.90000E-001	-4.01114E-005	10	...........	 0.11
	251	0.00252	1.17663E+000	1.17643E-002	0.00000E+000	5.90000E-001	-4.01114E-005	10	...........	 0.11
	252	0.00253	1.17663E+000	1.17643E-002	0.00000E+000	5.90000E-001	-4.01114E-005	10	...........	 0.11
	253	0.00254	1.17703E+000	1.17663E-002	0.00000E+000	5.90000E-001	-4.01114E-005	10	...........	 0.11
	254	0.00255	1.17783E+000	1.17663E-002	0.00000E+000	5.90000E-001	-4.01114E-005	10	...........	 0.11
	255	0.00256	1.17823E+000	1.17703E-002	0.00000E+000	5.90000E-001	5.98886E-005	10	...........	 0.11
	256	0.00257	1.17823E+000	1.17703E-002	0.00000E+000	5.90000E-001	5.98886E-005	10	...........	 0.11
	257	0.00258	1.17863E+000	1.17683E-002	0.00000E+000	5.90000E-001	5.98886E-005	10	...........	 0.11
	258	0.00259	1.17903E+000	1.17703E-002	0.00000E+000	5.90000E-001	5.98886E-005	10	...........	 0.11
	259	0.0026	1.17873E+000	1.17663E-002	0.00000E+000	5.90000E-001	5.98886E-005	10	...........	 0.11
	260	0.00261	1.17943E+000	1.17703E-002	0.00000E+000	5.90000E-001	1.59889E-004	10	...........	 0.11
	261	0.00262	1.17993E+000	1.17703E-002	0.00000E+000	5.90000E-001	-4.01114E-005	10	...........	 0.11
	262	0.00263	1.17983E+000	1.17723E-002	0.00000E+000	5.90000E-001	5.98886E-005	10	...........	 0.11
	263	0.00264	1.17993E+000	1.17743E-002	0.00000E+000	5.90000E-001	-4.01114E-005	10	...........	 0.11
	264	0.00265	1.18023E+000	1.17743E-002	0.00000E+000	5.90000E-001	-4.01114E-005	10	...........	 0.11
	265	0.00266	1.18023E+000	1.17743E-002	0.00000E+000	5.90000E-001	1.59889E-004	10	...........	 0.11
	266	0.00267	1.18103E+000	1.17703E-002	0.00000E+000	5.90000E-001	5.98886E-005	10	...........	 0.11
	267	0.00268	1.18113E+000	1.17783E-002	0.00000E+000	5.90000E-001	5.98886E-005	10	...........	 0.11
	268	0.00269	1.18113E+000	1.17783E-002	0.00000E+000	5.90000E-001	5.98886E-005	10	...........	 0.11
	269	0.0027	1.18183E+000	1.17783E-002	0.00000E+000	5.90000E-001	5.98886E-005	10	...........	 0.11
	270	0.00271	1.18183E+000	1.17803E-002	0.00000E+000	5.90000E-001	5.98886E-005	10	...........	 0.11
	271	0.00272	1.18213E+000	1.17783E-002	0.00000E+000	5.90000E-001	5.98886E-005	10	...........	 0.11
	272	0.00273	1.18223E+000	1.17783E-002	0.00000E+000	5.90000E-001	1.59889E-004	10	...........	 0.11
	273	0.00274	1.18263E+000	1.17783E-002	0.00000E+000	5.90000E-001	5.98886E-005	10	...........	 0.11
	274	0.00275	1.18263E+000	1.17803E-002	0.00000E+000	5.90000E-001	5.98886E-005	10	...........	 0.11
	275	0.00276	1.18273E+000	1.17783E-002	0.00000E+000	5.90000E-001	5.98886E-005	10	...........	 0.11
	276	0.00277	1.18273E+000	1.17823E-002	0.00000E+000	5.90000E-001	-1.40111E-004	10	...........	 0.11
	277	0.00278	1.18323E+000	1.17803E-002	0.00000E+000	5.90000E-001	-1.40111E-004	10	...........	 0.11
	278	0.00279	1.18343E+000	1.17803E-002	0.00000E+000	5.90000E-001	5.98886E-005	10	...........	 0.11
	279	0.0028	1.18353E+000	1.17783E-002	0.00000E+000	5.90000E-001	5.98886E-005	10	...........	 0.11
	280	0.00281	1.18393E+000	1.17823E-002	0.00000E+000	5.90000E-001	-4.01114E-005	10	...........	 0.11
	281	0.00282	1.18363E+000	1.17823E-002	0.00000E+000	5.90000E-001	-4.01114E-005	10	...........	 0.11
	282	0.00283	1.18423E+000	1.17823E-002	0.00000E+000	5.90000E-001	5.98886E-005	10	...........	 0.11
	283	0.00284	1.18433E+000	1.17823E-002	0.00000E+000	5.90000E-001	-4.01114E-005	10	...........	 0.11
	284	0.00285	1.18423E+000	1.17783E-002	0.00000E+000	5.90000E-001	-4.01114E-005	10	...........	 0.11
	285	0.00286	1.18423E+000	1.17783E-002	0.00000E+000	5.90000E-001	1.59889E-004	10	...........	 0.11
	286	0.00287	1.18473E+000	1.17823E-002	0.00000E+000	5.90000E-001	-4.01114E-005	10	...........	 0.11
	287	0.00288	1.18483E+000	1.17823E-002	0.00000E+000	5.90000E-001	5.98886E-005	10	...........	 0.11
	288	0.00289	1.18513E+000	1.17803E-002	0.00000E+000	5.90000E-001	5.98886E-005	10	...........	 0.11
	289	0.0029	1.18493E+000	1.17843E-002	0.00000E+000	5.90000E-001	5.98886E-005	10	...........	 0.11
	290	0.00291	1.18533E+000	1.17823E-002	0.00000E+000	5.90000E-001	-4.01114E-005	10	...........	 0.11
	291	0.00292	1.18523E+000	1.17803E-002	0.00000E+000	5.90000E-001	-4.01114E-005	10	...........	 0.11
	292	0.00293	1.18543E+000	1.17803E-002	0.00000E+000	5.90000E-001	5.98886E-005	10	...........	 0.11
	293	0.00294	1.18583E+000	1.17823E-002	0.00000E+000	5.90000E-001	5.98886E-005	10	...........	 0.11
	294	0.00295	1.18583E+000	1.17803E-002	0.00000E+000	5.90000E-001	5.98886E-005	10	...........	 0.11
	295	0.00296	1.18593E+000	1.17783E-002	0.00000E+000	5.90000E-001	5.98886E-005	10	...........	 0.11
	296	0.00297	1.18623E+000	1.17863E-002	0.00000E+000	5.90000E-001	5.98886E-005	10	...........	 0.11
	297	0.00298	1.18613E+000	1.17823E-002	0.00000E+000	5.90000E-001	-4.01114E-005	10	...........	 0.11
	298	0.00299	1.18623E+000	1.17863E-002	0.00000E+000	5.90000E-001	5.98886E-005	10	...........	 0.11
	299	0.003	1.18633E+000	1.17823E-002	0.00000E+000	5.90000E-001	-4.01114E-005	10	...........	 0.11
	300	0.00301	1.18623E+000	1.17823E-002	0.00000E+000	5.90000E-001	-4.01114E-005	10	...........	 0.11
	301	0.00302	1.18643E+000	1.17863E-002	0.00000E+000	5.90000E-001	5.98886E-005	10	...........	 0.11
	302	0.00303	1.18693E+000	1.17843E-002	0.00000E+000	5.90000E-001	5.98886E-005	10	...........	 0.11
	303	0.00304	1.18673E+000	1.17863E-002	0.00000E+000	5.90000E-001	-4.01114E-005	10	...........	 0.11
	304	0.00305	5.94233E-001	5.73804E-003	0.00000E+000	0.00000E+000	5.98886E-005	10	...........	 0.11
	305	0.00306	2.39533E-001	2.16190E-003	0.00000E+000	0.00000E+000	5.98886E-005	10	...........	 0.11
	306	0.00307	1.05833E-001	8.39853E-004	0.00000E+000	0.00000E+000	5.98886E-005	10	...........	 0.11
	307	0.00308	5.42326E-002	3.41834E-004	0.00000E+000	0.00000E+000	5.98886E-005	10	...........	 0.11
	308	0.00309	3.31326E-002	1.51827E-004	0.00000E+000	0.00000E+000	-4.01114E-005	10	...........	 0.11
	309	0.0031	2.38326E-002	7.38240E-005	0.00000E+000	0.00000E+000	5.98886E-005	10	...........	 0.11
	310	0.00311	1.98326E-002	4.38229E-005	0.00000E+000	0.00000E+000	5.98886E-005	10	...........	 0.11
	311	0.00312	1.74326E-002	2.58222E-005	0.00000E+000	0.00000E+000	5.98886E-005	10	...........	 0.11
	312	0.00313	1.51326E-002	1.98220E-005	0.00000E+000	0.00000E+000	1.59889E-004	10	...........	 0.11
	313	0.00314	1.39326E-002	2.18220E-005	0.00000E+000	0.00000E+000	-4.01114E-005	10	...........	 0.11
	314	0.00315	1.30326E-002	1.38217E-005	0.00000E+000	0.00000E+000	-4.01114E-005	10	...........	 0.11
	315	0.00316	1.20326E-002	1.38217E-005	0.00000E+000	0.00000E+000	-2.40111E-004	10	...........	 0.11
	316	0.00317	1.12326E-002	7.82152E-006	0.00000E+000	0.00000E+000	-4.01114E-005	10	...........	 0.11
	317	0.00318	1.02326E-002	5.82145E-006	0.00000E+000	0.00000E+000	5.98886E-005	10	...........	 0.11
	318	0.00319	9.93258E-003	5.82145E-006	0.00000E+000	0.00000E+000	-4.01114E-005	10	...........	 0.11
	319	0.0032	9.43258E-003	7.82152E-006	0.00000E+000	0.00000E+000	1.59889E-004	10	...........	 0.11
	320	0.00321	8.93258E-003	5.82145E-006	0.00000E+000	0.00000E+000	5.98886E-005	10	...........	 0.11
	321	0.00322	8.33258E-003	5.82145E-006	0.00000E+000	0.00000E+000	-4.01114E-005	10	...........	 0.11
	322	0.00323	8.33258E-003	5.82145E-006	0.00000E+000	0.00000E+000	-4.01114E-005	10	...........	 0.11
	323	0.00324	7.83258E-003	5.82145E-006	0.00000E+000	0.00000E+000	5.98886E-005	10	...........	 0.11
	324	0.00325	7.53258E-003	5.82145E-006	0.00000E+000	0.00000E+000	5.98886E-005	10	...........	 0.11
	325	0.00326	6.93258E-003	1.82130E-006	0.00000E+000	0.00000E+000	-4.01114E-005	10	...........	 0.11
	326	0.00327	6.83258E-003	1.82130E-006	0.00000E+000	0.00000E+000	5.98886E-005	10	...........	 0.11
	327	0.00328	6.73258E-003	5.82145E-006	0.00000E+000	0.00000E+000	-4.01114E-005	10	...........	 0.11
	328	0.00329	5.83258E-003	3.82138E-006	0.00000E+000	0.00000E+000	-4.01114E-005	10	...........	 0.11
	329	0.0033	5.83258E-003	1.82130E-006	0.00000E+000	0.00000E+000	-4.01114E-005	10	...........	 0.11
	330	0.00331	5.43258E-003	1.82130E-006	0.00000E+000	0.00000E+000	-4.01114E-005	10	...........	 0.11
	331	0.00332	5.43258E-003	-4.17892E-006	0.00000E+000	0.00000E+000	5.98886E-005	10	...........	 0.11
	332	0.00333	4.93258E-003	1.82130E-006	0.00000E+000	0.00000E+000	5.98886E-005	10	...........	 0.11
	333	0.00334	4.73258E-003	3.82138E-006	0.00000E+000	0.00000E+000	5.98886E-005	10	...........	 0.11
	334	0.00335	4.83258E-003	1.82130E-006	0.00000E+000	0.00000E+000	5.98886E-005	10	...........	 0.11
	335	0.00336	4.33258E-003	5.82145E-006	0.00000E+000	0.00000E+000	-4.01114E-005	10	...........	 0.11
	336	0.00337	3.83258E-003	-2.17885E-006	0.00000E+000	0.00000E+000	1.59889E-004	10	...........	 0.11
	337	0.00338	3.83258E-003	-4.17892E-006	0.00000E+000	0.00000E+000	5.98886E-005	10	...........	 0.11
	338	0.00339	3.93258E-003	-4.17892E-006	0.00000E+000	0.00000E+000	-4.01114E-005	10	...........	 0.11
	339	0.0034	3.43258E-003	1.82130E-006	0.00000E+000	0.00000E+000	-4.01114E-005	10	...........	 0.11
	340	0.00341	3.03258E-003	-4.17892E-006	0.00000E+000	0.00000E+000	5.98886E-005	10	...........	 0.11
	341	0.00342	3.13258E-003	-6.17900E-006	0.00000E+000	0.00000E+000	5.98886E-005	10	...........	 0.11
	342	0.00343	2.93258E-003	1.82130E-006	0.00000E+000	0.00000E+000	5.98886E-005	10	...........	 0.11
	343	0.00344	3.13258E-003	-2.17885E-006	0.00000E+000	0.00000E+000	-4.01114E-005	10	...........	 0.11
	344	0.00345	3.03258E-003	-4.17892E-006	0.00000E+000	0.00000E+000	-4.01114E-005	10	...........	 0.11
	345	0.00346	2.23258E-003	-1.01791E-005	0.00000E+000	0.00000E+000	1.59889E-004	10	...........	 0.11
	346	0.00347	2.63258E-003	1.82130E-006	0.00000E+000	0.00000E+000	-4.01114E-005	10	...........	 0.11
	347	0.00348	2.63258E-003	1.82130E-006	0.00000E+000	0.00000E+000	5.98886E-005	10	...........	 0.11
	348	0.00349	2.23258E-003	-4.17892E-006	0.00000E+000	0.00000E+000	5.98886E-005	10	...........	 0.11
	349	0.0035	1.93258E-003	-8.17907E-006	0.00000E+000	0.00000E+000	-4.01114E-005	10	...........	 0.11
	350	0.00351	2.23258E-003	-4.17892E-006	0.00000E+000	0.00000E+000	5.98886E-005	10	...........	 0.11
	351	0.00352	2.23258E-003	-4.17892E-006	0.00000E+000	0.00000E+000	5.98886E-005	10	...........	 0.11
	352	0.00353	1.93258E-003	1.82130E-006	0.00000E+000	0.00000E+000	-4.01114E-005	10	...........	 0.11
	353	0.00354	1.83258E-003	1.82130E-006	0.00000E+000	0.00000E+000	5.98886E-005	10	...........	 0.11
	354	0.00355	1.83258E-003	-6.17900E-006	0.00000E+000	0.00000E+000	5.98886E-005	10	...........	 0.11
	355	0.00356	1.53258E-003	-4.17892E-006	0.00000E+000	0.00000E+000	-4.01114E-005	10	...........	 0.11
	356	0.00357	1.43258E-003	-6.17900E-006	0.00000E+000	0.00000E+000	5.98886E-005	10	...........	 0.11
	357	0.00358	1.13258E-003	1.82130E-006	0.00000E+000	0.00000E+000	-4.01114E-005	10	...........	 0.11
	358	0.00359	1.43258E-003	-6.17900E-006	0.00000E+000	0.00000E+000	5.98886E-005	10	...........	 0.11
	359	0.0036	1.03258E-003	-4.17892E-006	0.00000E+000	0.00000E+000	5.98886E-005	10	...........	 0.11
	360	0.00361	7.32576E-004	1.82130E-006	0.00000E+000	0.00000E+000	5.98886E-005	10	...........	 0.11
	361	0.00362	7.32576E-004	-6.17900E-006	0.00000E+000	0.00000E+000	5.98886E-005	10	...........	 0.11
	362	0.00363	6.32576E-004	1.82130E-006	0.00000E+000	0.00000E+000	5.98886E-005	10	...........	 0.11
	363	0.00364	6.32576E-004	-4.17892E-006	0.00000E+000	0.00000E+000	1.59889E-004	10	...........	 0.11
	364	0.00365	6.32576E-004	-6.17900E-006	0.00000E+000	0.00000E+000	5.98886E-005	10	...........	 0.11
	365	0.00366	3.32576E-004	-1.01791E-005	0.00000E+000	0.00000E+000	5.98886E-005	10	...........	 0.11
	366	0.00367	3.32576E-004	-1.01791E-005	0.00000E+000	0.00000E+000	5.98886E-005	10	...........	 0.11
	367	0.00368	3.32576E-004	-8.17907E-006	0.00000E+000	0.00000E+000	-4.01114E-005	10	...........	 0.11
	368	0.00369	2.32576E-004	1.82130E-006	0.00000E+000	0.00000E+000	5.98886E-005	10	...........	 0.11
	369	0.0037	5.32576E-004	1.82130E-006	0.00000E+000	0.00000E+000	-4.01114E-005	10	...........	 0.11
	370	0.00371	6.32576E-004	-6.17900E-006	0.00000E+000	0.00000E+000	5.98886E-005	10	...........	 0.11
	371	0.00372	2.32576E-004	-8.17907E-006	0.00000E+000	0.00000E+000	5.98886E-005	10	...........	 0.11
	372	0.00373	-1.67424E-004	-8.17907E-006	0.00000E+000	0.00000E+000	5.98886E-005	10	...........	 0.11
	373	0.00374	-6.74242E-005	-8.17907E-006	0.00000E+000	0.00000E+000	5.98886E-005	10	...........	 0.11
	374	0.00375	3.25758E-005	1.82130E-006	0.00000E+000	0.00000E+000	1.59889E-004	10	...........	 0.11
	375	0.00376	-1.67424E-004	-6.17900E-006	0.00000E+000	0.00000E+000	5.98886E-005	10	...........	 0.11
	376	0.00377	-1.67424E-004	-4.17892E-006	0.00000E+000	0.00000E+000	5.98886E-005	10	...........	 0.11
	377	0.00378	-1.67424E-004	-6.17900E-006	0.00000E+000	0.00000E+000	1.59889E-004	10	...........	 0.11
	378	0.00379	-3.67424E-004	1.82130E-006	0.00000E+000	0.00000E+000	5.98886E-005	10	...........	 0.11
	379	0.0038	-6.74242E-005	-4.17892E-006	0.00000E+000	0.00000E+000	-4.01114E-005	10	...........	 0.11
	380	0.00381	-1.67424E-004	1.82130E-006	0.00000E+000	0.00000E+000	5.98886E-005	10	...........	 0.11
	381	0.00382	-2.67424E-004	1.82130E-006	0.00000E+000	0.00000E+000	5.98886E-005	10	...........	 0.11
	382	0.00383	-2.67424E-004	1.82130E-006	0.00000E+000	0.00000E+000	5.98886E-005	10	...........	 0.11
	383	0.00384	-5.67424E-004	-2.17885E-006	0.00000E+000	0.00000E+000	5.98886E-005	10	...........	 0.11
	384	0.00385	-4.67424E-004	-6.17900E-006	0.00000E+000	0.00000E+000	1.59889E-004	10	...........	 0.11
	385	0.00386	-4.67424E-004	-6.17900E-006	0.00000E+000	0.00000E+000	5.98886E-005	10	...........	 0.11
	386	0.00387	-8.67424E-004	-6.17900E-006	0.00000E+000	0.00000E+000	5.98886E-005	10	...........	 0.11
	387	0.00388	-9.67424E-004	-8.17907E-006	0.00000E+000	0.00000E+000	1.59889E-004	10	...........	 0.11
	388	0.00389	-8.67424E-004	-4.17892E-006	0.00000E+000	0.00000E+000	5.98886E-005	10	...........	 0.11
	389	0.0039	-9.67424E-004	-8.17907E-006	0.00000E+000	0.00000E+000	5.98886E-005	10	...........	 0.11
	390	0.00391	-5.67424E-004	1.82130E-006	0.00000E+000	0.00000E+000	5.98886E-005	10	...........	 0.11
	391	0.00392	-5.67424E-004	-4.17892E-006	0.00000E+000	0.00000E+000	5.98886E-005	10	...........	 0.11
	392	0.00393	-8.67424E-004	1.82130E-006	0.00000E+000	0.00000E+000	5.98886E-005	10	...........	 0.11
	393	0.00394	-8.67424E-004	-8.17907E-006	0.00000E+000	0.00000E+000	-4.01114E-005	10	...........	 0.11
	394	0.00395	-1.36742E-003	-1.01791E-005	0.00000E+000	0.00000E+000	5.98886E-005	10	...........	 0.11
	395	0.00396	-1.36742E-003	-8.17907E-006	0.00000E+000	0.00000E+000	5.98886E-005	10	...........	 0.11
	396	0.00397	-9.67424E-004	-4.17892E-006	0.00000E+000	0.00000E+000	5.98886E-005	10	...........	 0.11
	397	0.00398	-1.26742E-003	1.82130E-006	0.00000E+000	0.00000E+000	-4.01114E-005	10	...........	 0.11
	398	0.00399	-9.67424E-004	-4.17892E-006	0.00000E+000	0.00000E+000	-4.01114E-005	10	...........	 0.11
	399	0.004	-9.67424E-004	-6.17900E-006	0.00000E+000	0.00000E+000	5.98886E-005	10	...........	 0.11
	400	0.00401	-9.67424E-004	-6.17900E-006	0.00000E+000	0.00000E+000	5.98886E-005	10	...........	 0.11
	401	0.00402	-8.67424E-004	-4.17892E-006	0.00000E+000	0.00000E+000	-4.01114E-005	10	...........	 0.11
	402	0.00403	-1.36742E-003	-1.01791E-005	0.00000E+000	0.00000E+000	1.59889E-004	10	...........	 0.11
	403	0.00404	-1.36742E-003	-1.21792E-005	0.00000E+000	0.00000E+000	1.59889E-004	10	...........	 0.11
