EXPLAIN
TAG	MULTI_STEP_CHRONOA
TITLE	LABEL	Chronoamperometry Scan	Test &Identifier
DATE	LABEL	4/27/2026	Date
TIME	LABEL	13:01:31	Time
PSTAT	PSTAT	REF600P-38064	Potentiostat
NOTES	NOTES	2	&Notes...
	
	
AREA	QUANT	1.00000E+000	Sample &Area (cm^2)
ELECTRODETYPE	SELECTOR	0	Electrode Type
STRIPPING	TOGGLE	F	Used for Stripping
VSTEP0	POTEN	0.00000E+000	F	Step &1 (V)
TSTEP0	QUANT	1.00000E-003	Time &1 (s)
VSTEP1	POTEN	-1.50000E+000	F	Step &2 (V)
TSTEP1	QUANT	2.00000E-004	Time &2 (s)
VSTEP2	POTEN	0.00000E+000	F	Step &3 (V)
TSTEP2	QUANT	2.00000E-005	Time &3 (s)
VSTEP3	POTEN	0.00000E+000	F	Step &4 (V)
TSTEP3	QUANT	2.00000E-005	Time &4 (s)
VSTEP4	POTEN	1.50000E+000	F	Step &5 (V)
TSTEP4	QUANT	2.00000E-004	Time &5 (s)
VSTEP5	POTEN	0.00000E+000	F	Step &6 (V)
TSTEP5	QUANT	1.00000E-003	Time &6 (s)
SAMPLETIME	QUANT	1.00002E-005	Sa&mple Period (s)
CONDIT	TWOPARAM	T	5.00000E+000	0.00000E+000	Conditionin&g	Time(s)	E(V)
DELAY	TWOPARAM	T	2.00000E+001	1.00000E-001	Init. De&lay	Time(s)	Stab.(mV/s)
EQDELAY	QUANT	0.00000E+000	Equil. &Time (s)
ILIMIT	QUANT	3.00000E+001	Limit &I (mA/cm^2)
IRANGE	QUANT	3.00000E+001	&Max Current (mA)
IRCOMP	SELECTOR	0	IRCom&p
PFCOR	QUANT	5.00000E+001	PF Corr. (ohm)
OCVCURVE	TABLE	40
	Pt	T	Vf	Vm	Ach	Over	Temp
	#	s	V vs. Ref.	V	V	bits	deg C
	0	0.258333	-3.60957E-003	-3.60957E-003	4.78022E-004	...........	-327.56
	1	0.516667	-3.60982E-003	-3.62251E-003	3.64489E-004	...........	-327.56
	2	0.775	-3.61131E-003	-3.63356E-003	4.80822E-004	...........	-327.56
	3	1.03333	-3.61546E-003	-3.64398E-003	3.64222E-004	...........	-327.56
	4	1.29167	-3.62268E-003	-3.65218E-003	4.82489E-004	...........	-327.56
	5	1.55	-3.63195E-003	-3.66255E-003	3.61489E-004	...........	-327.56
	6	1.80833	-3.64183E-003	-3.66778E-003	4.80289E-004	...........	-327.56
	7	2.06667	-3.65130E-003	-3.67506E-003	3.65355E-004	...........	-327.56
	8	2.325	-3.65981E-003	-3.67956E-003	4.83155E-004	...........	-327.56
	9	2.58333	-3.66717E-003	-3.68370E-003	3.67422E-004	...........	-327.56
	10	2.84167	-3.67346E-003	-3.69006E-003	4.73689E-004	...........	-327.56
	11	3.1	-3.67898E-003	-3.69448E-003	3.68355E-004	...........	-327.56
	12	3.35833	-3.68410E-003	-3.69772E-003	4.80489E-004	...........	-327.56
	13	3.61667	-3.68895E-003	-3.70204E-003	3.68955E-004	...........	-327.56
	14	3.875	-3.69349E-003	-3.70711E-003	4.88355E-004	...........	-327.56
	15	4.13333	-3.69781E-003	-3.71108E-003	3.67155E-004	...........	-327.56
	16	4.39167	-3.70205E-003	-3.71293E-003	4.81689E-004	...........	-327.56
	17	4.65	-3.70617E-003	-3.71883E-003	3.59222E-004	...........	-327.56
	18	4.90833	-3.71007E-003	-3.72084E-003	4.85755E-004	...........	-327.56
	19	5.16667	-3.71379E-003	-3.72370E-003	3.62822E-004	...........	-327.56
	20	5.425	-3.71730E-003	-3.72581E-003	4.83222E-004	...........	-327.56
	21	5.68333	-3.72048E-003	-3.73007E-003	3.68089E-004	...........	-327.56
	22	5.94167	-3.72347E-003	-3.73459E-003	4.80489E-004	...........	-327.56
	23	6.2	-3.72657E-003	-3.73580E-003	3.63422E-004	...........	-327.56
	24	6.45833	-3.72981E-003	-3.73793E-003	4.85355E-004	...........	-327.56
	25	6.71667	-3.73290E-003	-3.74075E-003	3.60022E-004	...........	-327.56
	26	6.975	-3.73561E-003	-3.74206E-003	4.83089E-004	...........	-327.56
	27	7.23333	-3.73802E-003	-3.74631E-003	3.58489E-004	...........	-327.56
	28	7.49167	-3.74033E-003	-3.74647E-003	4.73822E-004	...........	-327.56
	29	7.75	-3.74264E-003	-3.74959E-003	3.62489E-004	...........	-327.56
	30	8.00833	-3.74491E-003	-3.75236E-003	4.74689E-004	...........	-327.56
	31	8.26667	-3.74717E-003	-3.75447E-003	3.64022E-004	...........	-327.56
	32	8.525	-3.74948E-003	-3.75589E-003	4.74955E-004	...........	-327.56
	33	8.78333	-3.75177E-003	-3.75759E-003	3.72155E-004	...........	-327.56
	34	9.04167	-3.75392E-003	-3.76139E-003	4.79022E-004	...........	-327.56
	35	9.3	-3.75598E-003	-3.76125E-003	3.64822E-004	...........	-327.56
	36	9.5583	-3.75802E-003	-3.76405E-003	4.85955E-004	...........	-327.56
	37	9.8167	-3.75999E-003	-3.76571E-003	3.60089E-004	...........	-327.56
	38	10.075	-3.76189E-003	-3.76845E-003	4.82889E-004	...........	-327.56
	39	10.3333	-3.76384E-003	-3.77123E-003	3.59955E-004	...........	-327.56
EOC	QUANT	-0.0037638	Open Circuit (V)
PSTATMODEL	IQUANT	7	Pstat Model
PSTATSECTION	LABEL	REF600P-38064	Pstat Section
PSTATSERIALNO	LABEL	38064	Pstat Serial Number
CTRLMODE	IQUANT	1	Control Mode
ELECTROMETER	IQUANT	0	RE=0 or CS=1
IESTAB	IQUANT	2	I/E Stability
CASPEED	IQUANT	4	Control Amp Speed
CONVENTION	IQUANT	1	Current Convention
ICHRANGE	IQUANT	2	Ich Range
ICHRANGEMODE	TOGGLE	F	Ich Auto Range
ICHOFFSETENABLE	TOGGLE	F	Ich Offset Enable
ICHOFFSET	QUANT	0	Ich Offset (V)
ICHFILTER	IQUANT	1	Ich Filter
VCHRANGE	IQUANT	2	Vch Range
VCHRANGEMODE	TOGGLE	F	Vch Auto Range
VCHOFFSETENABLE	TOGGLE	F	Vch Offset Enable
VCHOFFSET	QUANT	0	Vch Offset (V)
VCHFILTER	IQUANT	1	Vch Filter
ACHRANGE	IQUANT	2	Ach Range
ACHOFFSETENABLE	TOGGLE	F	Ach Offset Enable
ACHOFFSET	QUANT	0	Ach Offset (V)
ACHFILTER	IQUANT	1	Ach Filter
IERANGELOWERLIMIT	IQUANT	1	I/E Range Lower Limit
IERANGEMODE	TOGGLE	F	I/E AutoRange
IERANGE	IQUANT	10	I/E Range
POSFEEDENABLE	TOGGLE	F	Positive Feedback IR Comp
POSFEEDRESISTANCE	QUANT	0	Positive Feedback Resistance (ohm)
ACHSELECT	IQUANT	4	Ach Select
SENSECABLEID	IQUANT	7	Sense Cable ID
PWRCABLEID	IQUANT	7	Power Cable ID
DCCALDATE	LABEL	8/6/2024	DC Calibration Date
ACCALDATE	LABEL	8/6/2024	AC Calibration Date
THERMOSELECT	IQUANT	1	Thermo Select
FRAMEWORKVERSION	LABEL	7.10.3	Framework Version
INSTRUMENTVERSION	LABEL	4.91	Instrument Version
COMMVERSION	LABEL	5.10	Communications Version
CPUPLDVERSION	LABEL	6.00	CPU PLD Version
CTRLPLDVERSION	LABEL	3.21	CTRL PLD Version
PSTATPLDVERSION	LABEL	0.00	PSTAT PLD Version
Curve	TABLE	244
	Pt	T	Vf	Im	Vu	Sig	Ach	IERange	Over	Temp
	#	s	V vs. Ref.	A	V	V	V	#	bits	deg C
	0	1.E-005	6.32576E-004	4.18228E-005	0.00000E+000	0.00000E+000	5.98886E-005	10	...........	 0.11
	1	2.E-005	6.32576E-004	4.18228E-005	0.00000E+000	0.00000E+000	1.59889E-004	10	...........	 0.11
	2	3.E-005	7.32576E-004	4.18228E-005	0.00000E+000	0.00000E+000	-4.01114E-005	10	...........	 0.11
	3	4.E-005	2.32576E-004	3.78226E-005	0.00000E+000	0.00000E+000	5.98886E-005	10	...........	 0.11
	4	5.E-005	3.32576E-004	3.98227E-005	0.00000E+000	0.00000E+000	-4.01114E-005	10	...........	 0.11
	5	6.E-005	6.32576E-004	4.38229E-005	0.00000E+000	0.00000E+000	-4.01114E-005	10	...........	 0.11
	6	7.E-005	2.32576E-004	3.98227E-005	0.00000E+000	0.00000E+000	5.98886E-005	10	...........	 0.11
	7	8.E-005	7.32576E-004	4.58229E-005	0.00000E+000	0.00000E+000	-4.01114E-005	10	...........	 0.11
	8	9.E-005	6.32576E-004	4.38229E-005	0.00000E+000	0.00000E+000	1.59889E-004	10	...........	 0.11
	9	0.0001	2.32576E-004	3.98227E-005	0.00000E+000	0.00000E+000	5.98886E-005	10	...........	 0.11
	10	0.00011	3.32576E-004	3.98227E-005	0.00000E+000	0.00000E+000	5.98886E-005	10	...........	 0.11
	11	0.00012	3.32576E-004	3.78226E-005	0.00000E+000	0.00000E+000	5.98886E-005	10	...........	 0.11
	12	0.00013	6.32576E-004	4.18228E-005	0.00000E+000	0.00000E+000	1.59889E-004	10	...........	 0.11
	13	0.00014	6.32576E-004	4.38229E-005	0.00000E+000	0.00000E+000	5.98886E-005	10	...........	 0.11
	14	0.00015	6.32576E-004	4.18228E-005	0.00000E+000	0.00000E+000	5.98886E-005	10	...........	 0.11
	15	0.00016	6.32576E-004	4.78230E-005	0.00000E+000	0.00000E+000	5.98886E-005	10	...........	 0.11
	16	0.00017	6.32576E-004	4.38229E-005	0.00000E+000	0.00000E+000	1.59889E-004	10	...........	 0.11
	17	0.00018	6.32576E-004	4.18228E-005	0.00000E+000	0.00000E+000	5.98886E-005	10	...........	 0.11
	18	0.00019	2.32576E-004	3.98227E-005	0.00000E+000	0.00000E+000	5.98886E-005	10	...........	 0.11
	19	0.0002	6.32576E-004	4.18228E-005	0.00000E+000	0.00000E+000	5.98886E-005	10	...........	 0.11
	20	0.00021	6.32576E-004	4.18228E-005	0.00000E+000	0.00000E+000	5.98886E-005	10	...........	 0.11
	21	0.00022	7.32576E-004	4.58229E-005	0.00000E+000	0.00000E+000	-4.01114E-005	10	...........	 0.11
	22	0.00023	3.32576E-004	3.78226E-005	0.00000E+000	0.00000E+000	-4.01114E-005	10	...........	 0.11
	23	0.00024	6.32576E-004	4.18228E-005	0.00000E+000	0.00000E+000	5.98886E-005	10	...........	 0.11
	24	0.00025	3.32576E-004	3.78226E-005	0.00000E+000	0.00000E+000	5.98886E-005	10	...........	 0.11
	25	0.00026	3.32576E-004	3.78226E-005	0.00000E+000	0.00000E+000	-4.01114E-005	10	...........	 0.11
	26	0.00027	6.32576E-004	4.18228E-005	0.00000E+000	0.00000E+000	5.98886E-005	10	...........	 0.11
	27	0.00028	6.32576E-004	4.18228E-005	0.00000E+000	0.00000E+000	5.98886E-005	10	...........	 0.11
	28	0.00029	3.32576E-004	3.78226E-005	0.00000E+000	0.00000E+000	-4.01114E-005	10	...........	 0.11
	29	0.0003	6.32576E-004	4.18228E-005	0.00000E+000	0.00000E+000	5.98886E-005	10	...........	 0.11
	30	0.00031	7.32576E-004	4.38229E-005	0.00000E+000	0.00000E+000	-4.01114E-005	10	...........	 0.11
	31	0.00032	6.32576E-004	4.18228E-005	0.00000E+000	0.00000E+000	5.98886E-005	10	...........	 0.11
	32	0.00033	6.32576E-004	4.18228E-005	0.00000E+000	0.00000E+000	5.98886E-005	10	...........	 0.11
	33	0.00034	7.32576E-004	4.18228E-005	0.00000E+000	0.00000E+000	-4.01114E-005	10	...........	 0.11
	34	0.00035	6.32576E-004	4.58229E-005	0.00000E+000	0.00000E+000	-4.01114E-005	10	...........	 0.11
	35	0.00036	6.32576E-004	4.58229E-005	0.00000E+000	0.00000E+000	5.98886E-005	10	...........	 0.11
	36	0.00037	6.32576E-004	4.18228E-005	0.00000E+000	0.00000E+000	5.98886E-005	10	...........	 0.11
	37	0.00038	6.32576E-004	4.18228E-005	0.00000E+000	0.00000E+000	1.59889E-004	10	...........	 0.11
	38	0.00039	2.32576E-004	3.98227E-005	0.00000E+000	0.00000E+000	5.98886E-005	10	...........	 0.11
	39	0.0004	6.32576E-004	4.18228E-005	0.00000E+000	0.00000E+000	5.98886E-005	10	...........	 0.11
	40	0.00041	6.32576E-004	4.18228E-005	0.00000E+000	0.00000E+000	5.98886E-005	10	...........	 0.11
	41	0.00042	6.32576E-004	4.38229E-005	0.00000E+000	0.00000E+000	5.98886E-005	10	...........	 0.11
	42	0.00043	6.32576E-004	4.38229E-005	0.00000E+000	0.00000E+000	5.98886E-005	10	...........	 0.11
	43	0.00044	6.32576E-004	4.18228E-005	0.00000E+000	0.00000E+000	5.98886E-005	10	...........	 0.11
	44	0.00045	7.32576E-004	4.78230E-005	0.00000E+000	0.00000E+000	-4.01114E-005	10	...........	 0.11
	45	0.00046	6.32576E-004	3.98227E-005	0.00000E+000	0.00000E+000	-4.01114E-005	10	...........	 0.11
	46	0.00047	6.32576E-004	4.38229E-005	0.00000E+000	0.00000E+000	1.59889E-004	10	...........	 0.11
	47	0.00048	3.32576E-004	3.78226E-005	0.00000E+000	0.00000E+000	5.98886E-005	10	...........	 0.11
	48	0.00049	6.32576E-004	4.78230E-005	0.00000E+000	0.00000E+000	5.98886E-005	10	...........	 0.11
	49	0.0005	6.32576E-004	4.58229E-005	0.00000E+000	0.00000E+000	5.98886E-005	10	...........	 0.11
	50	0.00051	6.32576E-004	4.18228E-005	0.00000E+000	0.00000E+000	5.98886E-005	10	...........	 0.11
	51	0.00052	6.32576E-004	4.38229E-005	0.00000E+000	0.00000E+000	1.59889E-004	10	...........	 0.11
	52	0.00053	2.32576E-004	3.98227E-005	0.00000E+000	0.00000E+000	5.98886E-005	10	...........	 0.11
	53	0.00054	7.32576E-004	4.38229E-005	0.00000E+000	0.00000E+000	-4.01114E-005	10	...........	 0.11
	54	0.00055	6.32576E-004	4.38229E-005	0.00000E+000	0.00000E+000	5.98886E-005	10	...........	 0.11
	55	0.00056	2.32576E-004	3.98227E-005	0.00000E+000	0.00000E+000	1.59889E-004	10	...........	 0.11
	56	0.00057	6.32576E-004	4.18228E-005	0.00000E+000	0.00000E+000	5.98886E-005	10	...........	 0.11
	57	0.00058	6.32576E-004	4.58229E-005	0.00000E+000	0.00000E+000	5.98886E-005	10	...........	 0.11
	58	0.00059	6.32576E-004	4.18228E-005	0.00000E+000	0.00000E+000	5.98886E-005	10	...........	 0.11
	59	0.0006	6.32576E-004	4.58229E-005	0.00000E+000	0.00000E+000	5.98886E-005	10	...........	 0.11
	60	0.00061	3.32576E-004	3.98227E-005	0.00000E+000	0.00000E+000	5.98886E-005	10	...........	 0.11
	61	0.00062	6.32576E-004	4.18228E-005	0.00000E+000	0.00000E+000	5.98886E-005	10	...........	 0.11
	62	0.00063	6.32576E-004	4.38229E-005	0.00000E+000	0.00000E+000	5.98886E-005	10	...........	 0.11
	63	0.00064	3.32576E-004	3.78226E-005	0.00000E+000	0.00000E+000	5.98886E-005	10	...........	 0.11
	64	0.00065	7.32576E-004	4.38229E-005	0.00000E+000	0.00000E+000	-4.01114E-005	10	...........	 0.11
	65	0.00066	2.32576E-004	3.98227E-005	0.00000E+000	0.00000E+000	5.98886E-005	10	...........	 0.11
	66	0.00067	3.32576E-004	3.78226E-005	0.00000E+000	0.00000E+000	5.98886E-005	10	...........	 0.11
	67	0.00068	6.32576E-004	4.38229E-005	0.00000E+000	0.00000E+000	5.98886E-005	10	...........	 0.11
	68	0.00069	6.32576E-004	4.18228E-005	0.00000E+000	0.00000E+000	5.98886E-005	10	...........	 0.11
	69	0.0007	3.32576E-004	3.98227E-005	0.00000E+000	0.00000E+000	-4.01114E-005	10	...........	 0.11
	70	0.00071	2.32576E-004	3.98227E-005	0.00000E+000	0.00000E+000	-4.01114E-005	10	...........	 0.11
	71	0.00072	2.32576E-004	3.98227E-005	0.00000E+000	0.00000E+000	5.98886E-005	10	...........	 0.11
	72	0.00073	6.32576E-004	4.18228E-005	0.00000E+000	0.00000E+000	5.98886E-005	10	...........	 0.11
	73	0.00074	2.32576E-004	3.98227E-005	0.00000E+000	0.00000E+000	5.98886E-005	10	...........	 0.11
	74	0.00075	6.32576E-004	4.18228E-005	0.00000E+000	0.00000E+000	5.98886E-005	10	...........	 0.11
	75	0.00076	6.32576E-004	4.18228E-005	0.00000E+000	0.00000E+000	5.98886E-005	10	...........	 0.11
	76	0.00077	6.32576E-004	4.38229E-005	0.00000E+000	0.00000E+000	1.59889E-004	10	...........	 0.11
	77	0.00078	6.32576E-004	4.18228E-005	0.00000E+000	0.00000E+000	5.98886E-005	10	...........	 0.11
	78	0.00079	6.32576E-004	4.58229E-005	0.00000E+000	0.00000E+000	5.98886E-005	10	...........	 0.11
	79	0.0008	3.32576E-004	3.78226E-005	0.00000E+000	0.00000E+000	-4.01114E-005	10	...........	 0.11
	80	0.00081	6.32576E-004	4.18228E-005	0.00000E+000	0.00000E+000	5.98886E-005	10	...........	 0.11
	81	0.00082	6.32576E-004	4.18228E-005	0.00000E+000	0.00000E+000	5.98886E-005	10	...........	 0.11
	82	0.00083	6.32576E-004	4.18228E-005	0.00000E+000	0.00000E+000	5.98886E-005	10	...........	 0.11
	83	0.00084	6.32576E-004	4.18228E-005	0.00000E+000	0.00000E+000	5.98886E-005	10	...........	 0.11
	84	0.00085	6.32576E-004	4.38229E-005	0.00000E+000	0.00000E+000	5.98886E-005	10	...........	 0.11
	85	0.00086	6.32576E-004	4.18228E-005	0.00000E+000	0.00000E+000	5.98886E-005	10	...........	 0.11
	86	0.00087	6.32576E-004	4.18228E-005	0.00000E+000	0.00000E+000	5.98886E-005	10	...........	 0.11
	87	0.00088	6.32576E-004	4.18228E-005	0.00000E+000	0.00000E+000	5.98886E-005	10	...........	 0.11
	88	0.00089	3.32576E-004	3.78226E-005	0.00000E+000	0.00000E+000	5.98886E-005	10	...........	 0.11
	89	0.0009	6.32576E-004	4.38229E-005	0.00000E+000	0.00000E+000	5.98886E-005	10	...........	 0.11
	90	0.00091	6.32576E-004	4.18228E-005	0.00000E+000	0.00000E+000	5.98886E-005	10	...........	 0.11
	91	0.00092	6.32576E-004	4.18228E-005	0.00000E+000	0.00000E+000	1.59889E-004	10	...........	 0.11
	92	0.00093	6.32576E-004	4.58229E-005	0.00000E+000	0.00000E+000	5.98886E-005	10	...........	 0.11
	93	0.00094	6.32576E-004	4.18228E-005	0.00000E+000	0.00000E+000	5.98886E-005	10	...........	 0.11
	94	0.00095	6.32576E-004	4.58229E-005	0.00000E+000	0.00000E+000	5.98886E-005	10	...........	 0.11
	95	0.00096	7.32576E-004	4.18228E-005	0.00000E+000	0.00000E+000	-1.40111E-004	10	...........	 0.11
	96	0.00097	6.32576E-004	4.38229E-005	0.00000E+000	0.00000E+000	5.98886E-005	10	...........	 0.11
	97	0.00098	6.32576E-004	4.18228E-005	0.00000E+000	0.00000E+000	5.98886E-005	10	...........	 0.11
	98	0.00099	6.32576E-004	4.18228E-005	0.00000E+000	0.00000E+000	5.98886E-005	10	...........	 0.11
	99	0.001	2.32576E-004	3.98227E-005	0.00000E+000	0.00000E+000	5.98886E-005	10	...........	 0.11
	100	0.00101	-5.66467E-001	-5.69039E-003	0.00000E+000	-1.50000E+000	5.98886E-005	10	...........	 0.11
	101	0.00102	-9.94067E-001	-1.00146E-002	0.00000E+000	-1.50000E+000	5.98886E-005	10	..ch.......	 0.11
	102	0.00103	-1.21607E+000	-1.22326E-002	0.00000E+000	-1.50000E+000	5.98886E-005	10	..ch.......	 0.11
	103	0.00104	-1.33467E+000	-1.34047E-002	0.00000E+000	-1.50000E+000	5.98886E-005	10	..ch.......	 0.11
	104	0.00105	-1.39967E+000	-1.40387E-002	0.00000E+000	-1.50000E+000	5.98886E-005	10	..ch.......	 0.11
	105	0.00106	-1.43617E+000	-1.43847E-002	0.00000E+000	-1.50000E+000	-4.01114E-005	10	..ch.......	 0.11
	106	0.00107	-1.45697E+000	-1.45767E-002	0.00000E+000	-1.50000E+000	5.98886E-005	10	..ch.......	 0.11
	107	0.00108	-1.47007E+000	-1.46867E-002	0.00000E+000	-1.50000E+000	5.98886E-005	10	..ch.......	 0.11
	108	0.00109	-1.47767E+000	-1.47447E-002	0.00000E+000	-1.50000E+000	1.59889E-004	10	...h.......	 0.11
	109	0.0011	-1.48267E+000	-1.47827E-002	0.00000E+000	-1.50000E+000	5.98886E-005	10	...........	 0.11
	110	0.00111	-1.48607E+000	-1.48067E-002	0.00000E+000	-1.50000E+000	5.98886E-005	10	...........	 0.11
	111	0.00112	-1.48817E+000	-1.48187E-002	0.00000E+000	-1.50000E+000	5.98886E-005	10	...........	 0.11
	112	0.00113	-1.49007E+000	-1.48267E-002	0.00000E+000	-1.50000E+000	-4.01114E-005	10	...........	 0.11
	113	0.00114	-1.49177E+000	-1.48347E-002	0.00000E+000	-1.50000E+000	-4.01114E-005	10	...........	 0.11
	114	0.00115	-1.49217E+000	-1.48347E-002	0.00000E+000	-1.50000E+000	-4.01114E-005	10	...........	 0.11
	115	0.00116	-1.49337E+000	-1.48307E-002	0.00000E+000	-1.50000E+000	5.98886E-005	10	...........	 0.11
	116	0.00117	-1.49407E+000	-1.48347E-002	0.00000E+000	-1.50000E+000	1.59889E-004	10	...........	 0.11
	117	0.00118	-1.49467E+000	-1.48347E-002	0.00000E+000	-1.50000E+000	-4.01114E-005	10	...........	 0.11
	118	0.00119	-1.49497E+000	-1.48367E-002	0.00000E+000	-1.50000E+000	5.98886E-005	10	...........	 0.11
	119	0.0012	-1.49567E+000	-1.48307E-002	0.00000E+000	-1.50000E+000	5.98886E-005	10	...........	 0.11
	120	0.00121	-9.20967E-001	-9.01452E-003	0.00000E+000	0.00000E+000	5.98886E-005	10	...........	 0.11
	121	0.00122	-4.82467E-001	-4.56635E-003	0.00000E+000	0.00000E+000	5.98886E-005	10	..ch.......	 0.11
	122	0.00123	-2.58967E-001	-2.32827E-003	0.00000E+000	0.00000E+000	1.59889E-004	10	..ch.......	 0.11
	123	0.00124	-1.43267E-001	-1.18822E-003	0.00000E+000	0.00000E+000	1.59889E-004	10	..ch.......	 0.11
	124	0.00125	4.87033E-001	5.16801E-003	0.00000E+000	1.50000E+000	1.59889E-004	10	..ch.......	 0.11
	125	0.00126	9.51133E-001	9.85019E-003	0.00000E+000	1.50000E+000	5.98886E-005	10	..ch.......	 0.11
	126	0.00127	1.19113E+000	1.22343E-002	0.00000E+000	1.50000E+000	-4.01114E-005	10	..ch.......	 0.11
	127	0.00128	1.31823E+000	1.34783E-002	0.00000E+000	1.50000E+000	5.98886E-005	10	..ch.......	 0.11
	128	0.00129	1.38743E+000	1.41323E-002	0.00000E+000	1.50000E+000	5.98886E-005	10	..ch.......	 0.11
	129	0.0013	1.42623E+000	1.44904E-002	0.00000E+000	1.50000E+000	5.98886E-005	10	..ch.......	 0.11
	130	0.00131	1.44783E+000	1.46844E-002	0.00000E+000	1.50000E+000	1.59889E-004	10	..ch.......	 0.11
	131	0.00132	1.46063E+000	1.47844E-002	0.00000E+000	1.50000E+000	5.98886E-005	10	..ch.......	 0.11
	132	0.00133	1.46913E+000	1.48504E-002	0.00000E+000	1.50000E+000	5.98886E-005	10	..ch.......	 0.11
	133	0.00134	1.47413E+000	1.48824E-002	0.00000E+000	1.50000E+000	5.98886E-005	10	...h.......	 0.11
	134	0.00135	1.47823E+000	1.49064E-002	0.00000E+000	1.50000E+000	5.98886E-005	10	...........	 0.11
	135	0.00136	1.48103E+000	1.49204E-002	0.00000E+000	1.50000E+000	1.59889E-004	10	...........	 0.11
	136	0.00137	1.48383E+000	1.49344E-002	0.00000E+000	1.50000E+000	5.98886E-005	10	...........	 0.11
	137	0.00138	1.48583E+000	1.49464E-002	0.00000E+000	1.50000E+000	5.98886E-005	10	...........	 0.11
	138	0.00139	1.48743E+000	1.49464E-002	0.00000E+000	1.50000E+000	5.98886E-005	10	...........	 0.11
	139	0.0014	1.48903E+000	1.49524E-002	0.00000E+000	1.50000E+000	5.98886E-005	10	...........	 0.11
	140	0.00141	1.49073E+000	1.49564E-002	0.00000E+000	1.50000E+000	1.59889E-004	10	...........	 0.11
	141	0.00142	1.49193E+000	1.49584E-002	0.00000E+000	1.50000E+000	5.98886E-005	10	...........	 0.11
	142	0.00143	1.49313E+000	1.49664E-002	0.00000E+000	1.50000E+000	1.59889E-004	10	...........	 0.11
	143	0.00144	1.49413E+000	1.49624E-002	0.00000E+000	1.50000E+000	5.98886E-005	10	...........	 0.11
	144	0.00145	9.19433E-001	9.14416E-003	0.00000E+000	0.00000E+000	5.98886E-005	10	...........	 0.11
	145	0.00146	4.78933E-001	4.67400E-003	0.00000E+000	0.00000E+000	5.98886E-005	10	..ch.......	 0.11
	146	0.00147	2.55133E-001	2.42991E-003	0.00000E+000	0.00000E+000	-4.01114E-005	10	..ch.......	 0.11
	147	0.00148	1.39833E-001	1.28387E-003	0.00000E+000	0.00000E+000	-4.01114E-005	10	..ch.......	 0.11
	148	0.00149	7.94326E-002	6.93847E-004	0.00000E+000	0.00000E+000	5.98886E-005	10	..ch.......	 0.11
	149	0.0015	4.71326E-002	3.89836E-004	0.00000E+000	0.00000E+000	-4.01114E-005	10	..ch.......	 0.11
	150	0.00151	2.94326E-002	2.17829E-004	0.00000E+000	0.00000E+000	5.98886E-005	10	..ch.......	 0.11
	151	0.00152	1.98326E-002	1.33826E-004	0.00000E+000	0.00000E+000	5.98886E-005	10	..ch.......	 0.11
	152	0.00153	1.42326E-002	8.98246E-005	0.00000E+000	0.00000E+000	5.98886E-005	10	...h.......	 0.11
	153	0.00154	1.06326E-002	6.58237E-005	0.00000E+000	0.00000E+000	5.98886E-005	10	...........	 0.11
	154	0.00155	8.63258E-003	4.58229E-005	0.00000E+000	0.00000E+000	5.98886E-005	10	...........	 0.11
	155	0.00156	6.73258E-003	3.78226E-005	0.00000E+000	0.00000E+000	5.98886E-005	10	...........	 0.11
	156	0.00157	5.83258E-003	3.38225E-005	0.00000E+000	0.00000E+000	5.98886E-005	10	...........	 0.11
	157	0.00158	5.03258E-003	2.58222E-005	0.00000E+000	0.00000E+000	1.59889E-004	10	...........	 0.11
	158	0.00159	4.33258E-003	3.38225E-005	0.00000E+000	0.00000E+000	5.98886E-005	10	...........	 0.11
	159	0.0016	3.83258E-003	2.58222E-005	0.00000E+000	0.00000E+000	5.98886E-005	10	...........	 0.11
	160	0.00161	3.83258E-003	2.58222E-005	0.00000E+000	0.00000E+000	5.98886E-005	10	...........	 0.11
	161	0.00162	3.43258E-003	2.58222E-005	0.00000E+000	0.00000E+000	5.98886E-005	10	...........	 0.11
	162	0.00163	3.03258E-003	2.58222E-005	0.00000E+000	0.00000E+000	5.98886E-005	10	...........	 0.11
	163	0.00164	2.73258E-003	2.58222E-005	0.00000E+000	0.00000E+000	5.98886E-005	10	...........	 0.11
	164	0.00165	2.53258E-003	2.58222E-005	0.00000E+000	0.00000E+000	5.98886E-005	10	...........	 0.11
	165	0.00166	2.43258E-003	3.38225E-005	0.00000E+000	0.00000E+000	5.98886E-005	10	...........	 0.11
	166	0.00167	2.33258E-003	2.58222E-005	0.00000E+000	0.00000E+000	-4.01114E-005	10	...........	 0.11
	167	0.00168	2.23258E-003	2.98223E-005	0.00000E+000	0.00000E+000	5.98886E-005	10	...........	 0.11
	168	0.00169	2.23258E-003	2.78223E-005	0.00000E+000	0.00000E+000	5.98886E-005	10	...........	 0.11
	169	0.0017	2.23258E-003	2.98223E-005	0.00000E+000	0.00000E+000	5.98886E-005	10	...........	 0.11
	170	0.00171	2.23258E-003	2.78223E-005	0.00000E+000	0.00000E+000	5.98886E-005	10	...........	 0.11
	171	0.00172	1.83258E-003	2.58222E-005	0.00000E+000	0.00000E+000	5.98886E-005	10	...........	 0.11
	172	0.00173	1.93258E-003	2.78223E-005	0.00000E+000	0.00000E+000	-4.01114E-005	10	...........	 0.11
	173	0.00174	1.83258E-003	2.98223E-005	0.00000E+000	0.00000E+000	-4.01114E-005	10	...........	 0.11
	174	0.00175	1.43258E-003	2.58222E-005	0.00000E+000	0.00000E+000	5.98886E-005	10	...........	 0.11
	175	0.00176	1.53258E-003	3.38225E-005	0.00000E+000	0.00000E+000	-4.01114E-005	10	...........	 0.11
	176	0.00177	1.43258E-003	2.78223E-005	0.00000E+000	0.00000E+000	-4.01114E-005	10	...........	 0.11
	177	0.00178	1.43258E-003	2.98223E-005	0.00000E+000	0.00000E+000	-4.01114E-005	10	...........	 0.11
	178	0.00179	1.03258E-003	2.98223E-005	0.00000E+000	0.00000E+000	5.98886E-005	10	...........	 0.11
	179	0.0018	1.13258E-003	3.38225E-005	0.00000E+000	0.00000E+000	1.59889E-004	10	...........	 0.11
	180	0.00181	1.53258E-003	3.18224E-005	0.00000E+000	0.00000E+000	-4.01114E-005	10	...........	 0.11
	181	0.00182	1.03258E-003	3.38225E-005	0.00000E+000	0.00000E+000	5.98886E-005	10	...........	 0.11
	182	0.00183	1.13258E-003	3.38225E-005	0.00000E+000	0.00000E+000	5.98886E-005	10	...........	 0.11
	183	0.00184	1.03258E-003	3.38225E-005	0.00000E+000	0.00000E+000	5.98886E-005	10	...........	 0.11
	184	0.00185	1.13258E-003	3.38225E-005	0.00000E+000	0.00000E+000	5.98886E-005	10	...........	 0.11
	185	0.00186	1.03258E-003	3.38225E-005	0.00000E+000	0.00000E+000	5.98886E-005	10	...........	 0.11
	186	0.00187	1.13258E-003	3.38225E-005	0.00000E+000	0.00000E+000	5.98886E-005	10	...........	 0.11
	187	0.00188	1.03258E-003	3.38225E-005	0.00000E+000	0.00000E+000	5.98886E-005	10	...........	 0.11
	188	0.00189	1.03258E-003	3.38225E-005	0.00000E+000	0.00000E+000	1.59889E-004	10	...........	 0.11
	189	0.0019	7.32576E-004	2.98223E-005	0.00000E+000	0.00000E+000	5.98886E-005	10	...........	 0.11
	190	0.00191	7.32576E-004	3.38225E-005	0.00000E+000	0.00000E+000	5.98886E-005	10	...........	 0.11
	191	0.00192	7.32576E-004	3.78226E-005	0.00000E+000	0.00000E+000	5.98886E-005	10	...........	 0.11
	192	0.00193	7.32576E-004	3.38225E-005	0.00000E+000	0.00000E+000	1.59889E-004	10	...........	 0.11
	193	0.00194	5.32576E-004	3.38225E-005	0.00000E+000	0.00000E+000	5.98886E-005	10	...........	 0.11
	194	0.00195	1.03258E-003	3.38225E-005	0.00000E+000	0.00000E+000	5.98886E-005	10	...........	 0.11
	195	0.00196	8.32576E-004	3.38225E-005	0.00000E+000	0.00000E+000	1.59889E-004	10	...........	 0.11
	196	0.00197	7.32576E-004	3.78226E-005	0.00000E+000	0.00000E+000	5.98886E-005	10	...........	 0.11
	197	0.00198	9.32576E-004	3.38225E-005	0.00000E+000	0.00000E+000	1.59889E-004	10	...........	 0.11
	198	0.00199	7.32576E-004	3.38225E-005	0.00000E+000	0.00000E+000	-4.01114E-005	10	...........	 0.11
	199	0.002	7.32576E-004	3.38225E-005	0.00000E+000	0.00000E+000	-4.01114E-005	10	...........	 0.11
	200	0.00201	6.32576E-004	3.38225E-005	0.00000E+000	0.00000E+000	5.98886E-005	10	...........	 0.11
	201	0.00202	6.32576E-004	3.38225E-005	0.00000E+000	0.00000E+000	5.98886E-005	10	...........	 0.11
	202	0.00203	7.32576E-004	3.38225E-005	0.00000E+000	0.00000E+000	-4.01114E-005	10	...........	 0.11
	203	0.00204	6.32576E-004	3.98227E-005	0.00000E+000	0.00000E+000	5.98886E-005	10	...........	 0.11
	204	0.00205	6.32576E-004	3.58226E-005	0.00000E+000	0.00000E+000	5.98886E-005	10	...........	 0.11
	205	0.00206	7.32576E-004	3.58226E-005	0.00000E+000	0.00000E+000	-4.01114E-005	10	...........	 0.11
	206	0.00207	6.32576E-004	3.38225E-005	0.00000E+000	0.00000E+000	5.98886E-005	10	...........	 0.11
	207	0.00208	3.32576E-004	3.78226E-005	0.00000E+000	0.00000E+000	5.98886E-005	10	...........	 0.11
	208	0.00209	6.32576E-004	3.98227E-005	0.00000E+000	0.00000E+000	1.59889E-004	10	...........	 0.11
	209	0.0021	5.32576E-004	3.78226E-005	0.00000E+000	0.00000E+000	1.59889E-004	10	...........	 0.11
	210	0.00211	8.32576E-004	3.38225E-005	0.00000E+000	0.00000E+000	5.98886E-005	10	...........	 0.11
	211	0.00212	7.32576E-004	4.18228E-005	0.00000E+000	0.00000E+000	5.98886E-005	10	...........	 0.11
	212	0.00213	7.32576E-004	3.58226E-005	0.00000E+000	0.00000E+000	5.98886E-005	10	...........	 0.11
	213	0.00214	7.32576E-004	3.98227E-005	0.00000E+000	0.00000E+000	-4.01114E-005	10	...........	 0.11
	214	0.00215	6.32576E-004	3.38225E-005	0.00000E+000	0.00000E+000	5.98886E-005	10	...........	 0.11
	215	0.00216	6.32576E-004	3.58226E-005	0.00000E+000	0.00000E+000	5.98886E-005	10	...........	 0.11
	216	0.00217	7.32576E-004	3.98227E-005	0.00000E+000	0.00000E+000	-4.01114E-005	10	...........	 0.11
	217	0.00218	6.32576E-004	3.78226E-005	0.00000E+000	0.00000E+000	5.98886E-005	10	...........	 0.11
	218	0.00219	4.32576E-004	3.78226E-005	0.00000E+000	0.00000E+000	1.59889E-004	10	...........	 0.11
	219	0.0022	6.32576E-004	3.18224E-005	0.00000E+000	0.00000E+000	5.98886E-005	10	...........	 0.11
	220	0.00221	7.32576E-004	4.18228E-005	0.00000E+000	0.00000E+000	5.98886E-005	10	...........	 0.11
	221	0.00222	6.32576E-004	3.78226E-005	0.00000E+000	0.00000E+000	5.98886E-005	10	...........	 0.11
	222	0.00223	6.32576E-004	3.58226E-005	0.00000E+000	0.00000E+000	5.98886E-005	10	...........	 0.11
	223	0.00224	7.32576E-004	3.78226E-005	0.00000E+000	0.00000E+000	-4.01114E-005	10	...........	 0.11
	224	0.00225	2.32576E-004	3.58226E-005	0.00000E+000	0.00000E+000	1.59889E-004	10	...........	 0.11
	225	0.00226	6.32576E-004	4.18228E-005	0.00000E+000	0.00000E+000	5.98886E-005	10	...........	 0.11
	226	0.00227	6.32576E-004	3.78226E-005	0.00000E+000	0.00000E+000	5.98886E-005	10	...........	 0.11
	227	0.00228	6.32576E-004	4.18228E-005	0.00000E+000	0.00000E+000	5.98886E-005	10	...........	 0.11
	228	0.00229	7.32576E-004	3.98227E-005	0.00000E+000	0.00000E+000	-4.01114E-005	10	...........	 0.11
	229	0.0023	2.32576E-004	3.78226E-005	0.00000E+000	0.00000E+000	5.98886E-005	10	...........	 0.11
	230	0.00231	6.32576E-004	3.78226E-005	0.00000E+000	0.00000E+000	5.98886E-005	10	...........	 0.11
	231	0.00232	6.32576E-004	4.18228E-005	0.00000E+000	0.00000E+000	5.98886E-005	10	...........	 0.11
	232	0.00233	2.32576E-004	3.58226E-005	0.00000E+000	0.00000E+000	1.59889E-004	10	...........	 0.11
	233	0.00234	3.32576E-004	3.78226E-005	0.00000E+000	0.00000E+000	5.98886E-005	10	...........	 0.11
	234	0.00235	4.32576E-004	3.58226E-005	0.00000E+000	0.00000E+000	1.59889E-004	10	...........	 0.11
	235	0.00236	6.32576E-004	4.18228E-005	0.00000E+000	0.00000E+000	5.98886E-005	10	...........	 0.11
	236	0.00237	3.32576E-004	3.98227E-005	0.00000E+000	0.00000E+000	5.98886E-005	10	...........	 0.11
	237	0.00238	3.32576E-004	3.78226E-005	0.00000E+000	0.00000E+000	-4.01114E-005	10	...........	 0.11
	238	0.00239	2.32576E-004	3.78226E-005	0.00000E+000	0.00000E+000	5.98886E-005	10	...........	 0.11
	239	0.0024	3.32576E-004	3.78226E-005	0.00000E+000	0.00000E+000	5.98886E-005	10	...........	 0.11
	240	0.00241	6.32576E-004	4.18228E-005	0.00000E+000	0.00000E+000	5.98886E-005	10	...........	 0.11
	241	0.00242	6.32576E-004	4.18228E-005	0.00000E+000	0.00000E+000	1.59889E-004	10	...........	 0.11
	242	0.00243	6.32576E-004	3.58226E-005	0.00000E+000	0.00000E+000	5.98886E-005	10	...........	 0.11
	243	0.00244	6.32576E-004	3.58226E-005	0.00000E+000	0.00000E+000	5.98886E-005	10	...........	 0.11
