EXPLAIN
TAG	EISPOT
TITLE	LABEL	Potentiostatic EIS	Test &Identifier
DATE	LABEL	4/22/2026	Date
TIME	LABEL	16:36:00	Time
NOTES	NOTES	1	&Notes...
	
PSTAT	PSTAT	REF600P-38064	Potentiostat
VDC	POTEN	0.00000E+000	T	DC &Voltage (V)
FREQINIT	QUANT	1.00000E+000	Initial Fre&q. (Hz)
FREQFINAL	QUANT	1.00000E+006	Final Fre&q. (Hz)
PTSPERDEC	QUANT	1.00000E+001	Points/&decade
VAC	QUANT	1.00000E+001	AC &Voltage (mV rms)
AREA	QUANT	1.76000E+000	&Area (cm^2)
CONDIT	TWOPARAM	T	2.00000E+001	0.00000E+000	Conditionin&g	Time(s)	E(V)
DELAY	TWOPARAM	T	2.00000E+001	0.00000E+000	Init. De&lay	Time(s)	Stab.(mV/s)
SPEED	SELECTOR	1	&Optimize for:
THD	SELECTOR	0	T&HD
DRIFTCOR	SELECTOR	0	&Drift Correction
ZGUESS	QUANT	2.00000E+003	E&stimated Z (ohms)
OCVCURVE	TABLE	77
	Pt	T	Vf	Vm	Ach	Over	Temp
	#	s	V vs. Ref.	V	V	bits	deg C
	0	0.258333	1.36541E-002	1.36541E-002	5.24089E-004	...........	-327.56
	1	0.516667	1.36563E-002	1.37718E-002	4.18355E-004	...........	-327.56
	2	0.775	1.36700E-002	1.38728E-002	5.21555E-004	...........	-327.56
	3	1.03333	1.37077E-002	1.39640E-002	4.18889E-004	...........	-327.56
	4	1.29167	1.37732E-002	1.40437E-002	5.22222E-004	...........	-327.56
	5	1.55	1.38570E-002	1.41174E-002	4.18355E-004	...........	-327.56
	6	1.80833	1.39454E-002	1.41847E-002	5.20355E-004	...........	-327.56
	7	2.06667	1.40295E-002	1.42477E-002	4.16622E-004	...........	-327.56
	8	2.325	1.41063E-002	1.43056E-002	5.24689E-004	...........	-327.56
	9	2.58333	1.41759E-002	1.43601E-002	4.18889E-004	...........	-327.56
	10	2.84167	1.42396E-002	1.44120E-002	5.25089E-004	...........	-327.56
	11	3.1	1.42987E-002	1.44611E-002	4.16289E-004	...........	-327.56
	12	3.35833	1.43539E-002	1.45066E-002	5.17022E-004	...........	-327.56
	13	3.61667	1.44059E-002	1.45485E-002	4.11555E-004	...........	-327.56
	14	3.875	1.44548E-002	1.45912E-002	5.18822E-004	...........	-327.56
	15	4.13333	1.45010E-002	1.46319E-002	4.20155E-004	...........	-327.56
	16	4.39167	1.45448E-002	1.46690E-002	5.15555E-004	...........	-327.56
	17	4.65	1.45867E-002	1.47044E-002	4.12022E-004	...........	-327.56
	18	4.90833	1.46267E-002	1.47385E-002	5.21355E-004	...........	-327.56
	19	5.16667	1.46646E-002	1.47707E-002	4.17889E-004	...........	-327.56
	20	5.425	1.47005E-002	1.48032E-002	5.15289E-004	...........	-327.56
	21	5.68333	1.47349E-002	1.48331E-002	4.17022E-004	...........	-327.56
	22	5.94167	1.47678E-002	1.48629E-002	5.13355E-004	...........	-327.56
	23	6.2	1.47995E-002	1.48909E-002	4.16489E-004	...........	-327.56
	24	6.45833	1.48302E-002	1.49195E-002	5.20689E-004	...........	-327.56
	25	6.71667	1.48598E-002	1.49467E-002	4.12955E-004	...........	-327.56
	26	6.975	1.48886E-002	1.49726E-002	5.18155E-004	...........	-327.56
	27	7.23333	1.49165E-002	1.49949E-002	4.15155E-004	...........	-327.56
	28	7.49167	1.49434E-002	1.50188E-002	5.13555E-004	...........	-327.56
	29	7.75	1.49689E-002	1.50418E-002	4.11889E-004	...........	-327.56
	30	8.00833	1.49932E-002	1.50644E-002	5.21022E-004	...........	-327.56
	31	8.26667	1.50168E-002	1.50871E-002	4.14889E-004	...........	-327.56
	32	8.525	1.50398E-002	1.51078E-002	5.24155E-004	...........	-327.56
	33	8.78333	1.50624E-002	1.51288E-002	4.18622E-004	...........	-327.56
	34	9.04167	1.50844E-002	1.51451E-002	5.23689E-004	...........	-327.56
	35	9.3	1.51054E-002	1.51639E-002	4.11555E-004	...........	-327.56
	36	9.5583	1.51253E-002	1.51835E-002	5.26755E-004	...........	-327.56
	37	9.8167	1.51444E-002	1.52013E-002	4.11022E-004	...........	-327.56
	38	10.075	1.51630E-002	1.52172E-002	5.17155E-004	...........	-327.56
	39	10.3333	1.51812E-002	1.52343E-002	4.14289E-004	...........	-327.56
	40	10.5917	1.51989E-002	1.52515E-002	5.21755E-004	...........	-327.56
	41	10.85	1.52162E-002	1.52688E-002	4.11422E-004	...........	-327.56
	42	11.1083	1.52332E-002	1.52863E-002	5.22222E-004	...........	-327.56
	43	11.3667	1.52503E-002	1.53013E-002	4.18489E-004	...........	-327.56
	44	11.625	1.52672E-002	1.53162E-002	5.17355E-004	...........	-327.56
	45	11.8833	1.52838E-002	1.53325E-002	4.16489E-004	...........	-327.56
	46	12.1417	1.52998E-002	1.53458E-002	5.19622E-004	...........	-327.56
	47	12.4	1.53152E-002	1.53588E-002	4.09822E-004	...........	-327.56
	48	12.6583	1.53301E-002	1.53736E-002	5.19289E-004	...........	-327.56
	49	12.9167	1.53444E-002	1.53867E-002	4.10155E-004	...........	-327.56
	50	13.175	1.53583E-002	1.54005E-002	5.13489E-004	...........	-327.56
	51	13.4333	1.53721E-002	1.54151E-002	4.16889E-004	...........	-327.56
	52	13.6917	1.53858E-002	1.54239E-002	5.20755E-004	...........	-327.56
	53	13.95	1.53992E-002	1.54369E-002	4.15689E-004	...........	-327.56
	54	14.2083	1.54120E-002	1.54503E-002	5.19822E-004	...........	-327.56
	55	14.4667	1.54243E-002	1.54624E-002	4.12955E-004	...........	-327.56
	56	14.725	1.54365E-002	1.54741E-002	5.25155E-004	...........	-327.56
	57	14.9833	1.54488E-002	1.54857E-002	4.11822E-004	...........	-327.56
	58	15.2417	1.54610E-002	1.54950E-002	5.17489E-004	...........	-327.56
	59	15.5	1.54727E-002	1.55055E-002	4.15289E-004	...........	-327.56
	60	15.7583	1.54839E-002	1.55170E-002	5.11689E-004	...........	-327.56
	61	16.0167	1.54946E-002	1.55282E-002	4.12689E-004	...........	-327.56
	62	16.275	1.55053E-002	1.55377E-002	5.10689E-004	...........	-327.56
	63	16.5333	1.55160E-002	1.55471E-002	4.07555E-004	...........	-327.56
	64	16.7917	1.55265E-002	1.55582E-002	5.15755E-004	...........	-327.56
	65	17.05	1.55368E-002	1.55694E-002	4.12222E-004	...........	-327.56
	66	17.3083	1.55471E-002	1.55788E-002	5.14422E-004	...........	-327.56
	67	17.5667	1.55574E-002	1.55836E-002	4.10889E-004	...........	-327.56
	68	17.825	1.55673E-002	1.55957E-002	5.16089E-004	...........	-327.56
	69	18.0833	1.55765E-002	1.56051E-002	4.08089E-004	...........	-327.56
	70	18.3417	1.55855E-002	1.56140E-002	5.09222E-004	...........	-327.56
	71	18.6	1.55947E-002	1.56228E-002	4.11755E-004	...........	-327.56
	72	18.8583	1.56039E-002	1.56320E-002	5.21622E-004	...........	-327.56
	73	19.1167	1.56131E-002	1.56403E-002	4.16889E-004	...........	-327.56
	74	19.375	1.56221E-002	1.56493E-002	5.15489E-004	...........	-327.56
	75	19.6333	1.56310E-002	1.56565E-002	4.15422E-004	...........	-327.56
	76	19.8917	1.56396E-002	1.56657E-002	5.12622E-004	...........	-327.56
EOC	QUANT	0.0156396	Open Circuit (V)
PSTATMODEL	IQUANT	7	Pstat Model
PSTATSECTION	LABEL	REF600P-38064	Pstat Section
PSTATSERIALNO	LABEL	38064	Pstat Serial Number
CTRLMODE	IQUANT	1	Control Mode
ELECTROMETER	IQUANT	0	RE=0 or CS=1
IESTAB	IQUANT	0	I/E Stability
CASPEED	IQUANT	3	Control Amp Speed
CONVENTION	IQUANT	1	Current Convention
ICHRANGE	IQUANT	2	Ich Range
ICHRANGEMODE	TOGGLE	F	Ich Auto Range
ICHOFFSETENABLE	TOGGLE	T	Ich Offset Enable
ICHOFFSET	QUANT	0	Ich Offset (V)
ICHFILTER	IQUANT	3	Ich Filter
VCHRANGE	IQUANT	2	Vch Range
VCHRANGEMODE	TOGGLE	F	Vch Auto Range
VCHOFFSETENABLE	TOGGLE	T	Vch Offset Enable
VCHOFFSET	QUANT	0	Vch Offset (V)
VCHFILTER	IQUANT	3	Vch Filter
ACHRANGE	IQUANT	2	Ach Range
ACHOFFSETENABLE	TOGGLE	F	Ach Offset Enable
ACHOFFSET	QUANT	0	Ach Offset (V)
ACHFILTER	IQUANT	1	Ach Filter
IERANGELOWERLIMIT	IQUANT	1	I/E Range Lower Limit
IERANGEMODE	TOGGLE	F	I/E AutoRange
IERANGE	IQUANT	7	I/E Range
POSFEEDENABLE	TOGGLE	F	Positive Feedback IR Comp
POSFEEDRESISTANCE	QUANT	0	Positive Feedback Resistance (ohm)
ACHSELECT	IQUANT	4	Ach Select
SENSECABLEID	IQUANT	7	Sense Cable ID
PWRCABLEID	IQUANT	7	Power Cable ID
DCCALDATE	LABEL	8/6/2024	DC Calibration Date
ACCALDATE	LABEL	8/6/2024	AC Calibration Date
THERMOSELECT	IQUANT	1	Thermo Select
FRAMEWORKVERSION	LABEL	7.10.3	Framework Version
INSTRUMENTVERSION	LABEL	4.91	Instrument Version
COMMVERSION	LABEL	5.10	Communications Version
CPUPLDVERSION	LABEL	6.00	CPU PLD Version
CTRLPLDVERSION	LABEL	3.21	CTRL PLD Version
PSTATPLDVERSION	LABEL	0.00	PSTAT PLD Version
ZCURVE	TABLE
	Pt	Time	Freq	Zreal	Zimag	Zsig	Zmod	Zphz	Idc	Vdc	IERange	Imod	Vmod	Temp
	#	s	Hz	ohm	ohm	V	ohm	°	A	V	#	A	V	°C
	0	7	0.999041	138.7798	-2.786225	1	138.8078	-1.150149	-9.319621E-007	0.0157635	8	7.200655E-005	0.0099993	-327.5632
	1	12	1.266892	138.633	-2.450736	1	138.6547	-1.012762	-1.367059E-006	0.0157634	8	7.195148E-005	0.0099831	-327.5632
	2	18	1.584686	138.5206	-2.175176	1	138.5377	-0.8996362	-1.626656E-006	0.0157662	8	7.184185E-005	0.009963	-327.5632
	3	22	1.998082	138.4058	-1.935514	1	138.4193	-0.8011919	-1.791904E-006	0.0157663	8	7.152091E-005	0.0099152	-327.5632
	4	27	2.504006	138.2608	-1.736841	1	138.2717	-0.7197151	-1.861067E-006	0.0157659	8	7.078071E-005	0.0098084	-327.5632
	5	30	3.158693	138.1561	-1.597243	1	138.1654	-0.6623755	-1.900955E-006	0.0157729	8	7.499502E-005	0.0103617	-327.5632
	6	33	3.945707	138.0533	-1.469805	1	138.0611	-0.6099851	-1.901364E-006	0.0157743	8	7.242605E-005	0.0099992	-327.5632
	7	35	5.008013	137.9615	-1.368266	1	137.9683	-0.568226	-1.944198E-006	0.0157719	8	7.248863E-005	0.0100011	-327.5632
	8	38	6.317385	137.8626	-1.288491	1	137.8687	-0.535482	-2.000027E-006	0.0157685	8	7.252352E-005	0.0099987	-327.5632
	9	40	7.944915	137.7659	-1.259549	1	137.7717	-0.5238221	-2.005737E-006	0.015768	8	7.258332E-005	0.0099999	-327.5632
	10	42	9.93114	137.6685	-1.239008	1	137.6741	-0.5156444	-2.010038E-006	0.0157698	8	7.264491E-005	0.0100013	-327.5632
	11	43	12.40079	137.551	-1.275229	1	137.5569	-0.5311714	-2.033318E-006	0.0157682	8	7.268613E-005	0.0099985	-327.5632
	12	45	15.83615	137.4243	-1.295082	1	137.4304	-0.5399376	-2.012232E-006	0.0157661	8	7.277384E-005	0.0100014	-327.5632
	13	46	19.86229	137.2643	-1.381566	1	137.2712	-0.5766632	-2.006221E-006	0.0157671	8	7.283787E-005	0.0099986	-327.5632
	14	48	24.93351	137.1031	-1.464076	1	137.1109	-0.6118183	-1.830253E-006	0.0157788	8	6.754681E-005	0.0092615	-327.5632
	15	49	31.6723	136.8874	-1.549583	1	136.8962	-0.6485676	-1.852741E-006	0.0157813	8	7.58229E-005	0.0103801	-327.5632
	16	51	39.72458	136.6513	-1.654576	1	136.6613	-0.6937044	-1.8559E-006	0.0157761	8	7.42929E-005	0.0101533	-327.5632
	17	52	49.86702	136.3939	-1.73906	1	136.405	-0.7304972	-1.892782E-006	0.0157822	8	7.379431E-005	0.0100665	-327.5632
	18	54	63.3446	136.1632	-1.821516	1	136.1754	-0.7664257	-1.899415E-006	0.0157818	8	7.365266E-005	0.0100305	-327.5632
	19	55	79.00281	135.8027	-1.840082	1	135.8152	-0.7762912	-1.9201E-006	0.0157818	8	7.374051E-005	0.0100164	-327.5632
	20	57	100.4464	135.4838	-1.867467	1	135.4967	-0.7896973	-1.903614E-006	0.0157816	8	7.386845E-005	0.0100111	-327.5632
	21	58	125.558	135.2024	-1.854231	1	135.2151	-0.7857329	-1.924716E-006	0.0157744	8	7.397735E-005	0.0100063	-327.5632
	22	60	158.3615	134.8926	-1.796329	1	134.9046	-0.7629476	-1.943094E-006	0.0157749	8	7.413331E-005	0.0100064	-327.5632
	23	61	198.6229	134.614	-1.727117	1	134.625	-0.7350731	-1.912317E-006	0.0157741	8	7.43022E-005	0.0100117	-327.5632
	24	63	252.4038	134.3544	-1.640262	1	134.3644	-0.6994593	-1.873826E-006	0.0157762	8	7.43848E-005	0.010009	-327.5632
	25	64	315.5048	134.1277	-1.559096	1	134.1368	-0.6659741	-1.878909E-006	0.0157739	8	7.439854E-005	0.0100025	-327.5632
	26	66	397.9953	133.9095	-1.470392	1	133.9175	-0.6291107	-1.856675E-006	0.0157763	8	7.429047E-005	0.0099862	-327.5632
	27	67	505.5147	133.7238	-1.384502	1	133.7309	-0.5931875	-1.861071E-006	0.0157746	8	7.366674E-005	0.0099133	-327.5632
	28	69	627.7902	133.5658	-1.296127	1	133.5721	-0.5559829	-4.268595E-007	0.0160267	8	7.534931E-005	0.0100646	-327.5632
	29	70	796.875	133.4293	-1.215039	1	133.4349	-0.5217343	-3.682183E-007	0.0160324	8	7.49754E-005	0.0100043	-327.5632
	30	72	998.264	133.2523	-1.202006	1	133.2577	-0.5168241	-3.444288E-007	0.0160359	8	7.500849E-005	0.0099955	-327.5632
	31	73	1265.625	133.1551	-1.11927	1	133.1598	-0.4816032	-3.314491E-007	0.0160356	8	7.509586E-005	0.0099998	-327.5632
	32	75	1577.524	133.0372	-1.103943	1	133.0418	-0.4754298	-3.221386E-007	0.0160346	8	7.516973E-005	0.0100007	-327.5632
	33	76	1976.103	132.9321	-1.069432	1	132.9364	-0.4609315	-2.870329E-007	0.016039	8	7.521252E-005	0.0099985	-327.5632
	34	78	2527.573	132.7959	-1.039682	1	132.8	-0.4485691	-3.147706E-007	0.0160366	8	7.526546E-005	0.0099953	-327.5632
	35	79	3170.956	132.6438	-1.045548	1	132.6479	-0.4516174	-2.607115E-007	0.0160404	8	7.532803E-005	0.0099922	-327.5632
	36	81	3984.375	132.5267	-1.045091	1	132.5309	-0.4518188	-2.677762E-007	0.0160351	8	7.540984E-005	0.0099943	-327.5632
	37	82	5015.625	132.4339	-1.076789	1	132.4383	-0.4658484	-2.602936E-007	0.0160368	8	7.546306E-005	0.0099945	-327.5632
	38	84	6328.125	132.3128	-1.073549	1	132.3172	-0.4648715	-2.345319E-007	0.0160358	8	7.546649E-005	0.009986	-327.5632
	39	85	8015.625	132.1917	-1.102016	1	132.1963	-0.477635	-2.024387E-007	0.0160342	8	7.547515E-005	0.0099783	-327.5632
	40	87	10078.13	132.061	-1.140091	1	132.0659	-0.494626	-1.757395E-007	0.016037	8	7.540062E-005	0.0099591	-327.5632
	41	88	12609.38	131.9534	-1.217299	1	131.959	-0.5285511	-1.735065E-007	0.0160386	8	7.538671E-005	0.0099499	-327.5632
	42	90	15890.62	131.821	-1.26374	1	131.827	-0.5492657	-1.942902E-007	0.0160305	8	7.522389E-005	0.0099196	-327.5632
	43	91	20015.62	131.7234	-1.381409	1	131.7307	-0.6008499	-1.319179E-007	0.0160377	8	7.49091E-005	0.0098727	-327.5632
	44	93	25171.88	131.5879	-1.491479	1	131.5964	-0.6493893	-1.287484E-007	0.0160347	8	7.448042E-005	0.009809	-327.5632
	45	95	31640.63	131.4486	-1.688369	1	131.4595	-0.7358851	-9.215812E-008	0.0160409	8	7.370995E-005	0.0097019	-327.5632
	46	96	39890.62	131.2782	-1.846462	1	131.2912	-0.8058268	-4.700223E-008	0.0160383	8	7.263627E-005	0.0095553	-327.5632
	47	98	50203.12	131.1241	-2.075232	1	131.1406	-0.9067141	-5.68009E-008	0.0160398	8	7.119761E-005	0.009366	-327.5632
	48	99	63140.62	130.9178	-2.374014	1	130.9393	-1.038866	-4.037474E-009	0.016044	8	6.929784E-005	0.0091183	-327.5632
	49	101	79453.13	130.6823	-2.686631	1	130.7099	-1.177749	2.938327E-008	0.0160457	8	6.701071E-005	0.0088259	-327.5632
	50	102	100078.1	130.4318	-2.99373	1	130.4662	-1.314848	2.333064E-008	0.0160368	8	6.420599E-005	0.0084741	-327.5632
	51	104	125953.1	130.1533	-3.380721	1	130.1972	-1.487918	1.360999E-006	0.0160792	8	6.878813E-005	0.0089551	-327.5632
	52	105	158578.1	129.6261	-3.957263	1	129.6865	-1.748599	1.307017E-006	0.016082	8	6.406517E-005	0.008307	-327.5632
	53	107	199546.9	129.3842	-4.692265	1	129.4692	-2.076987	1.32515E-006	0.0160988	8	6.329438E-005	0.0081925	-327.5632
	54	108	251203.1	128.8473	-4.84358	1	128.9383	-2.152828	1.385616E-006	0.0160779	8	6.262736E-005	0.0080717	-327.5632
	55	110	316265.6	128.4805	-5.565849	1	128.601	-2.480535	1.425305E-006	0.0160827	8	6.244169E-005	0.0080248	-327.5632
	56	111	398109.4	127.8013	-6.347532	1	127.9589	-2.843384	1.439771E-006	0.0160932	8	6.213905E-005	0.007943	-327.5632
	57	113	501234.4	127.5566	-7.650006	1	127.7858	-3.432113	1.450506E-006	0.0160956	8	6.234301E-005	0.0079534	-327.5632
	58	114	630984.4	127.0268	-8.392409	1	127.3037	-3.779926	1.448753E-006	0.0160774	8	6.246851E-005	0.0079315	-327.5632
	59	116	794390.6	126.8702	-9.93828	1	127.2589	-4.479076	1.471749E-006	0.0160924	8	6.326645E-005	0.0080174	-327.5632
	60	117	1000078	126.9693	-11.49625	1	127.4887	-5.173653	1.520099E-006	0.0161035	8	6.449017E-005	0.0081664	-327.5632
